27 132
27.02 146
27.04 155
27.06 144
27.08 133
27.10 144
27.12 147
27.14 163
27.16 145
27.18 148
27.20 144
27.22 135
27.24 171
27.26 152
27.28 145
27.30 162
27.32 138
27.34 137
27.36 140
27.38 154
27.40 147
27.42 155
27.44 138
27.46 149
27.48 158
27.50 136
27.52 139
27.54 158
27.56 125
27.58 134
27.60 153
27.62 133
27.64 174
27.66 162
27.68 137
27.70 127
27.72 141
27.74 149
27.76 145
27.78 120
27.80 143
27.82 152
27.84 145
27.86 136
27.88 130
27.90 140
27.92 127
27.94 149
27.96 139
27.98 145
28.00 166
28.02 141
28.04 142
28.06 151
28.08 164
28.10 140
28.12 139
28.14 145
28.16 139
28.18 142
28.20 150
28.22 157
28.24 156
28.26 155
28.28 136
28.30 143
28.32 157
28.34 143
28.36 149
28.38 149
28.40 130
28.42 163
28.44 145
28.46 154
28.48 138
28.50 150
28.52 141
28.54 156
28.56 128
28.58 146
28.60 146
28.62 159
28.64 134
28.66 147
28.68 157
28.70 138
28.72 171
28.74 139
28.76 167
28.78 148
28.80 134
28.82 156
28.84 174
28.86 158
28.88 135
28.90 143
28.92 144
28.94 158
28.96 130
28.98 142
29.00 155
29.02 159
29.04 139
29.06 151
29.08 160
29.10 157
29.12 150
29.14 164
29.16 144
29.18 161
29.20 175
29.22 174
29.24 156
29.26 151
29.28 155
29.30 161
29.32 162
29.34 156
29.36 171
29.38 176
29.40 156
29.42 174
29.44 168
29.46 155
29.48 182
29.50 165
29.52 172
29.54 155
29.56 149
29.58 144
29.60 155
29.62 167
29.64 158
29.66 152
29.68 156
29.70 175
29.72 159
29.74 164
29.76 177
29.78 152
29.80 174
29.82 160
29.84 139
29.86 150
29.88 172
29.90 170
29.92 156
29.94 168
29.96 164
29.98 146
30.00 184
30.02 164
30.04 178
30.06 160
30.08 163
30.10 164
30.12 165
30.14 164
30.16 183
30.18 147
30.20 143
30.22 186
30.24 171
30.26 181
30.28 170
30.30 169
30.32 166
30.34 196
30.36 162
30.38 165
30.40 204
30.42 140
30.44 190
30.46 155
30.48 192
30.50 168
30.52 184
30.54 194
30.56 209
30.58 188
30.60 216
30.62 220
30.64 208
30.66 219
30.68 236
30.70 263
30.72 225
30.74 217
30.76 253
30.78 228
30.80 224
30.82 268
30.84 272
30.86 273
30.88 295
30.90 298
30.92 302
30.94 320
30.96 347
30.98 330
31.00 331
31.02 371
31.04 359
31.06 357
31.08 404
31.10 403
31.12 410
31.14 411
31.16 435
31.18 463
31.20 500
31.22 516
31.24 529
31.26 563
31.28 615
31.30 684
31.32 709
31.34 748
31.36 847
31.38 997
31.40 1068
31.42 1271
31.44 1540
31.46 1895
31.48 2377
31.50 2833
31.52 3616
31.54 4512
31.56 5946
31.58 7659
31.60 10035
31.62 13609
31.64 18548
31.66 26052
31.68 36949
31.70 50818
31.72 62511
31.74 68768
31.76 67258
31.78 59885
31.80 51640
31.82 43968
31.84 36678
31.86 28190
31.88 19694
31.90 12222
31.92 7852
31.94 5541
31.96 4140
31.98 3223
32.00 2502
32.02 2065
32.04 1749
32.06 1513
32.08 1268
32.10 1091
32.12 932
32.14 885
32.16 767
32.18 688
32.20 676
32.22 632
32.24 580
32.26 505
32.28 528
32.30 434
32.32 434
32.34 415
32.36 410
32.38 404
32.40 360
32.42 369
32.44 327
32.46 349
32.48 334
32.50 313
32.52 314
32.54 297
32.56 301
32.58 300
32.60 283
32.62 295
32.64 286
32.66 227
32.68 269
32.70 231
32.72 255
32.74 240
32.76 242
32.78 233
32.80 218
32.82 231
32.84 227
32.86 236
32.88 221
32.90 204
32.92 239
32.94 228
32.96 218
32.98 209
33.00 221
33.02 198
33.04 232
33.06 242
33.08 202
33.10 195
33.12 213
33.14 228
33.16 232
33.18 253
33.20 234
33.22 240
33.24 252
33.26 229
33.28 224
33.30 244
33.32 240
33.34 236
33.36 232
33.38 239
33.40 252
33.42 226
33.44 250
33.46 251
33.48 273
33.50 271
33.52 256
33.54 291
33.56 292
33.58 296
33.60 320
33.62 302
33.64 293
33.66 289
33.68 316
33.70 307
33.72 338
33.74 324
33.76 320
33.78 361
33.80 360
33.82 375
33.84 360
33.86 348
33.88 389
33.90 393
33.92 404
33.94 457
33.96 463
33.98 512
34.00 542
34.02 569
34.04 655
34.06 737
34.08 854
34.10 972
34.12 1100
34.14 1367
34.16 1734
34.18 2234
34.20 2851
34.22 3674
34.24 4809
34.26 6303
34.28 8238
34.30 11442
34.32 16417
34.34 22875
34.36 30591
34.38 36037
34.40 37486
34.42 34767
34.44 29869
34.46 25592
34.48 22650
34.50 19363
34.52 14967
34.54 10426
34.56 6811
34.58 4252
34.60 3060
34.62 2387
34.64 1827
34.66 1548
34.68 1301
34.70 1063
34.72 907
34.74 806
34.76 692
34.78 647
34.80 598
34.82 605
34.84 509
34.86 504
34.88 478
34.90 496
34.92 446
34.94 449
34.96 428
34.98 399
35.00 463
35.02 415
35.04 437
35.06 414
35.08 396
35.10 403
35.12 380
35.14 368
35.16 415
35.18 371
35.20 384
35.22 388
35.24 442
35.26 422
35.28 422
35.30 400
35.32 416
35.34 475
35.36 426
35.38 499
35.40 504
35.42 518
35.44 502
35.46 517
35.48 531
35.50 575
35.52 560
35.54 569
35.56 585
35.58 620
35.60 623
35.62 693
35.64 721
35.66 735
35.68 734
35.70 823
35.72 892
35.74 917
35.76 956
35.78 1108
35.80 1247
35.82 1265
35.84 1343
35.86 1612
35.88 1867
35.90 2086
35.92 2570
35.94 3060
35.96 3784
35.98 4640
36.00 5791
36.02 7083
36.04 8850
36.06 11482
36.08 14874
36.10 19779
36.12 26859
36.14 36920
36.16 52003
36.18 71584
36.20 89820
36.22 99995
36.24 99014
36.26 87590
36.28 75793
36.30 66723
36.32 60672
36.34 51088
36.36 39491
36.38 27405
36.40 17980
36.42 12443
36.44 8883
36.46 6657
36.48 5332
36.50 4224
36.52 3442
36.54 2828
36.56 2374
36.58 2084
36.60 1833
36.62 1639
36.64 1323
36.66 1247
36.68 1166
36.70 1048
36.72 983
36.74 857
36.76 835
36.78 747
36.80 713
36.82 664
36.84 653
36.86 624
36.88 558
36.90 546
36.92 532
36.94 485
36.96 432
36.98 415
37.00 431
37.02 426
37.04 373
37.06 350
37.08 363
37.10 318
37.12 312
37.14 293
37.16 323
37.18 279
37.20 287
37.22 269
37.24 288
37.26 278
37.28 254
37.30 240
37.32 260
37.34 221
37.36 249
37.38 242
37.40 236
37.42 233
37.44 218
37.46 209
37.48 244
37.50 227
37.52 212
37.54 205
37.56 239
37.58 215
37.60 206
37.62 223
37.64 217
37.66 185
37.68 223
37.70 200
37.72 213
37.74 212
37.76 182
37.78 163
37.80 178
37.82 159
37.84 176
37.86 182
37.88 182
37.90 190
37.92 157
37.94 178
37.96 209
37.98 206
38.00 197
38.02 188
38.04 160
38.06 184
38.08 179
38.10 185
38.12 183
38.14 196
38.16 181
38.18 160
38.20 194
38.22 176
38.24 147
38.26 163
38.28 150
38.30 195
38.32 203
38.34 196
38.36 170
38.38 177
38.40 157
38.42 164
38.44 166
38.46 156
38.48 174
38.50 192
38.52 191
38.54 180
38.56 184
38.58 202
38.60 169
38.62 159
38.64 177
38.66 158
38.68 179
38.70 169
38.72 160
38.74 165
38.76 180
38.78 174
38.80 165
38.82 154
38.84 180
38.86 165
38.88 161
38.90 189
38.92 159
38.94 187
38.96 144
38.98 165
39.00 140
39.02 154
39.04 159
39.06 152
39.08 158
39.10 167
39.12 180
39.14 159
39.16 147
39.18 156
39.20 159
39.22 158
39.24 156
39.26 132
39.28 162
39.30 147
39.32 157
39.34 168
39.36 156
39.38 136
39.40 152
39.42 170
39.44 141
39.46 153
39.48 159
39.50 141
39.52 155
39.54 137
39.56 144
39.58 146
39.60 146
39.62 156
39.64 155
39.66 145
39.68 156
39.70 153
39.72 158
39.74 147
39.76 164
39.78 126
39.80 159
39.82 170
39.84 139
39.86 147
39.88 141
39.90 158
39.92 148
39.94 142
39.96 131
39.98 138
40.00 152
40.02 150
40.04 156
40.06 158
40.08 130
40.10 177
40.12 158
40.14 156
40.16 146
40.18 119
40.20 140
40.22 160
40.24 136
40.26 167
40.28 160
40.30 139
40.32 147
40.34 133
40.36 152
40.38 142
40.40 134
40.42 143
40.44 149
40.46 154
40.48 158
40.50 155
40.52 155
40.54 160
40.56 156
40.58 151
40.60 135
40.62 149
40.64 138
40.66 142
40.68 131
40.70 152
40.72 140
40.74 153
40.76 154
40.78 139
40.80 140
40.82 141
40.84 147
40.86 145
40.88 152
40.90 156
40.92 130
40.94 148
40.96 134
40.98 137
41.00 160
41.02 132
41.04 160
41.06 123
41.08 150
41.10 144
41.12 148
41.14 139
41.16 142
41.18 124
41.20 128
41.22 141
41.24 125
41.26 140
41.28 126
41.30 132
41.32 152
41.34 144
41.36 166
41.38 143
41.40 144
41.42 152
41.44 113
41.46 148
41.48 140
41.50 128
41.52 169
41.54 124
41.56 160
41.58 147
41.60 139
41.62 126
41.64 136
41.66 137
41.68 116
41.70 145
41.72 152
41.74 131
41.76 151
41.78 140
41.80 153
41.82 125
41.84 138
41.86 153
41.88 141
41.90 137
41.92 130
41.94 155
41.96 144
41.98 149
42.00 161
42.02 139
42.04 144
42.06 144
42.08 145
42.10 130
42.12 148
42.14 148
42.16 133
42.18 146
42.20 142
42.22 146
42.24 141
42.26 135
42.28 165
42.30 139
42.32 147
42.34 132
42.36 137
42.38 153
42.40 137
42.42 154
42.44 144
42.46 140
42.48 151
42.50 153
42.52 123
42.54 138
42.56 139
42.58 160
42.60 156
42.62 149
42.64 119
42.66 147
42.68 111
42.70 138
42.72 117
42.74 144
42.76 163
42.78 126
42.80 140
42.82 129
42.84 113
42.86 160
42.88 134
42.90 138
42.92 160
42.94 132
42.96 143
42.98 143
43.00 134
43.02 162
43.04 135
43.06 134
43.08 159
43.10 144
43.12 126
43.14 118
43.16 146
43.18 142
43.20 125
43.22 133
43.24 128
43.26 155
43.28 128
43.30 129
43.32 118
43.34 119
43.36 136
43.38 142
43.40 139
43.42 120
43.44 129
43.46 142
43.48 129
43.50 141
43.52 135
43.54 124
43.56 146
43.58 115
43.60 135
43.62 148
43.64 136
43.66 112
43.68 154
43.70 137
43.72 132
43.74 135
43.76 139
43.78 129
43.80 116
43.82 135
43.84 126
43.86 143
43.88 137
43.90 142
43.92 149
43.94 144
43.96 117
43.98 131
44.00 148
44.02 144
44.04 148
44.06 134
44.08 150
44.10 139
44.12 124
44.14 152
44.16 153
44.18 144
44.20 147
44.22 128
44.24 130
44.26 141
44.28 140
44.30 146
44.32 147
44.34 124
44.36 150
44.38 165
44.40 140
44.42 141
44.44 153
44.46 141
44.48 161
44.50 157
44.52 126
44.54 154
44.56 163
44.58 142
44.60 139
44.62 140
44.64 133
44.66 114
44.68 136
44.70 126
44.72 133
44.74 148
44.76 135
44.78 152
44.80 156
44.82 162
44.84 149
44.86 153
44.88 126
44.90 166
44.92 140
44.94 139
44.96 131
44.98 145
45.00 135
45.02 144
45.04 118
45.06 135
45.08 122
45.10 149
45.12 137
45.14 124
45.16 143
45.18 116
45.20 143
45.22 134
45.24 134
45.26 140
45.28 160
45.30 166
45.32 143
45.34 141
45.36 118
45.38 131
45.40 134
45.42 116
45.44 137
45.46 157
45.48 159
45.50 134
45.52 133
45.54 141
45.56 156
45.58 133
45.60 133
45.62 156
45.64 135
45.66 133
45.68 149
45.70 144
45.72 147
45.74 139
45.76 184
45.78 143
45.80 164
45.82 161
45.84 156
45.86 156
45.88 116
45.90 152
45.92 142
45.94 154
45.96 155
45.98 146
46.00 128
46.02 148
46.04 155
46.06 159
46.08 195
46.10 155
46.12 162
46.14 174
46.16 171
46.18 170
46.20 182
46.22 175
46.24 152
46.26 181
46.28 178
46.30 191
46.32 195
46.34 183
46.36 172
46.38 193
46.40 180
46.42 189
46.44 187
46.46 174
46.48 181
46.50 188
46.52 216
46.54 194
46.56 215
46.58 201
46.60 199
46.62 230
46.64 188
46.66 206
46.68 246
46.70 226
46.72 239
46.74 220
46.76 232
46.78 249
46.80 255
46.82 211
46.84 272
46.86 279
46.88 247
46.90 246
46.92 291
46.94 308
46.96 314
46.98 337
47.00 331
47.02 370
47.04 367
47.06 420
47.08 407
47.10 431
47.12 472
47.14 527
47.16 593
47.18 710
47.20 786
47.22 957
47.24 1082
47.26 1301
47.28 1520
47.30 1791
47.32 2068
47.34 2426
47.36 3018
47.38 4107
47.40 5613
47.42 7961
47.44 11505
47.46 16804
47.48 21997
47.50 24220
47.52 24478
47.54 21718
47.56 17938
47.58 15891
47.60 14865
47.62 14423
47.64 13986
47.66 12694
47.68 9959
47.70 7181
47.72 4847
47.74 3304
47.76 2435
47.78 1907
47.80 1524
47.82 1319
47.84 1049
47.86 983
47.88 835
47.90 744
47.92 673
47.94 549
47.96 529
47.98 465
48.00 468
48.02 376
48.04 404
48.06 349
48.08 369
48.10 334
48.12 320
48.14 267
48.16 283
48.18 272
48.20 235
48.22 262
48.24 286
48.26 255
48.28 234
48.30 204
48.32 235
48.34 237
48.36 232
48.38 196
48.40 187
48.42 216
48.44 189
48.46 210
48.48 178
48.50 175
48.52 165
48.54 191
48.56 169
48.58 179
48.60 170
48.62 183
48.64 172
48.66 158
48.68 170
48.70 168
48.72 170
48.74 170
48.76 170
48.78 170
48.80 157
48.82 167
48.84 172
48.86 154
48.88 164
48.90 167
48.92 147
48.94 147
48.96 160
48.98 158
49.00 142
49.02 163
49.04 164
49.06 162
49.08 170
49.10 140
49.12 152
49.14 160
49.16 150
49.18 136
49.20 135
49.22 171
49.24 150
49.26 152
49.28 153
49.30 136
49.32 158
49.34 139
49.36 162
49.38 158
49.40 151
49.42 167
49.44 144
49.46 163
49.48 156
49.50 155
49.52 143
49.54 159
49.56 157
49.58 138
49.60 125
49.62 145
49.64 139
49.66 134
49.68 133
49.70 157
49.72 139
49.74 121
49.76 135
49.78 149
49.80 135
49.82 150
49.84 151
49.86 147
49.88 143
49.90 152
49.92 135
49.94 149
49.96 153
49.98 137
50.00 159
50.02 132
50.04 157
50.06 147
50.08 129
50.10 144
50.12 121
50.14 148
50.16 142
50.18 148
50.20 149
50.22 137
50.24 133
50.26 135
50.28 160
50.30 157
50.32 156
50.34 134
50.36 143
50.38 155
50.40 125
50.42 165
50.44 155
50.46 143
50.48 129
50.50 147
50.52 159
50.54 145
50.56 138
50.58 117
50.60 154
50.62 136
50.64 139
50.66 144
50.68 145
50.70 139
50.72 138
50.74 153
50.76 152
50.78 119
50.80 151
50.82 136
50.84 120
50.86 124
50.88 144
50.90 133
50.92 117
50.94 131
50.96 157
50.98 134
51.00 149
51.02 146
51.04 154
51.06 153
51.08 115
51.10 142
51.12 154
51.14 133
51.16 169
51.18 127
51.20 159
51.22 132
51.24 130
51.26 148
51.28 128
51.30 130
51.32 141
51.34 142
51.36 143
51.38 164
51.40 141
51.42 147
51.44 124
51.46 146
51.48 121
51.50 156
51.52 131
51.54 128
51.56 136
51.58 119
51.60 137
51.62 145
51.64 125
51.66 131
51.68 130
51.70 125
51.72 136
51.74 142
51.76 141
51.78 128
51.80 149
51.82 174
51.84 151
51.86 167
51.88 130
51.90 150
51.92 160
51.94 117
51.96 142
51.98 128
52.00 153
52.02 153
52.04 141
52.06 159
52.08 139
52.10 139
52.12 134
52.14 162
52.16 126
52.18 130
52.20 151
52.22 150
52.24 136
52.26 135
52.28 140
52.30 134
52.32 147
52.34 153
52.36 149
52.38 156
52.40 149
52.42 146
52.44 136
52.46 165
52.48 156
52.50 160
52.52 149
52.54 157
52.56 147
52.58 143
52.60 146
52.62 145
52.64 160
52.66 151
52.68 110
52.70 126
52.72 140
52.74 153
52.76 147
52.78 137
52.80 152
52.82 133
52.84 136
52.86 144
52.88 154
52.90 105
52.92 128
52.94 147
52.96 152
52.98 153
53.00 139
53.02 155
53.04 140
53.06 121
53.08 148
53.10 165
53.12 151
53.14 128
53.16 156
53.18 151
53.20 175
53.22 159
53.24 166
53.26 146
53.28 155
53.30 175
53.32 145
53.34 164
53.36 154
53.38 155
53.40 151
53.42 174
53.44 154
53.46 150
53.48 143
53.50 194
53.52 159
53.54 145
53.56 154
53.58 172
53.60 145
53.62 159
53.64 164
53.66 157
53.68 182
53.70 134
53.72 153
53.74 161
53.76 152
53.78 153
53.80 146
53.82 164
53.84 163
53.86 145
53.88 162
53.90 157
53.92 187
53.94 171
53.96 153
53.98 169
54.00 149
54.02 156
54.04 161
54.06 174
54.08 153
54.10 157
54.12 166
54.14 155
54.16 133
54.18 181
54.20 154
54.22 158
54.24 165
54.26 171
54.28 168
54.30 149
54.32 174
54.34 159
54.36 149
54.38 131
54.40 161
54.42 167
54.44 154
54.46 179
54.48 191
54.50 175
54.52 163
54.54 182
54.56 175
54.58 189
54.60 163
54.62 191
54.64 157
54.66 199
54.68 188
54.70 175
54.72 191
54.74 188
54.76 175
54.78 205
54.80 182
54.82 218
54.84 202
54.86 214
54.88 182
54.90 187
54.92 226
54.94 176
54.96 228
54.98 202
55.00 209
55.02 200
55.04 231
55.06 193
55.08 226
55.10 240
55.12 237
55.14 240
55.16 213
55.18 205
55.20 212
55.22 214
55.24 230
55.26 231
55.28 243
55.30 205
55.32 235
55.34 216
55.36 260
55.38 268
55.40 248
55.42 217
55.44 258
55.46 243
55.48 258
55.50 254
55.52 257
55.54 283
55.56 281
55.58 319
55.60 291
55.62 280
55.64 302
55.66 302
55.68 314
55.70 302
55.72 299
55.74 320
55.76 347
55.78 353
55.80 354
55.82 343
55.84 386
55.86 378
55.88 388
55.90 386
55.92 429
55.94 431
55.96 413
55.98 465
56.00 494
56.02 511
56.04 606
56.06 545
56.08 618
56.10 679
56.12 692
56.14 744
56.16 818
56.18 952
56.20 965
56.22 1231
56.24 1236
56.26 1527
56.28 1710
56.30 1951
56.32 2291
56.34 2576
56.36 3063
56.38 3563
56.40 4320
56.42 5371
56.44 7063
56.46 9570
56.48 12908
56.50 17061
56.52 22259
56.54 26884
56.56 28581
56.58 27479
56.60 25183
56.62 21134
56.64 18010
56.66 16567
56.68 16519
56.70 16911
56.72 16484
56.74 15210
56.76 13038
56.78 9986
56.80 7457
56.82 5585
56.84 4396
56.86 3360
56.88 2763
56.90 2296
56.92 1951
56.94 1682
56.96 1509
56.98 1310
57.00 1182
57.02 1039
57.04 928
57.06 848
57.08 801
57.10 744
57.12 683
57.14 597
57.16 551
57.18 541
57.20 511
57.22 501
57.24 509
57.26 452
57.28 407
57.30 432
57.32 411
57.34 358
57.36 372
57.38 379
57.40 321
57.42 367
57.44 333
57.46 319
57.48 332
57.50 304
57.52 321
57.54 275
57.56 309
57.58 291
57.60 277
57.62 307
57.64 275
57.66 268
57.68 263
57.70 271
57.72 253
57.74 258
57.76 227
57.78 290
57.80 244
57.82 250
57.84 239
57.86 242
57.88 250
57.90 261
57.92 226
57.94 254
57.96 201
57.98 229
58.00 221
58.02 247
58.04 252
58.06 218
58.08 196
58.10 230
58.12 216
58.14 207
58.16 237
58.18 187
58.20 208
58.22 204
58.24 196
58.26 225
58.28 192
58.30 236
58.32 222
58.34 182
58.36 200
58.38 196
58.40 178
58.42 202
58.44 184
58.46 224
58.48 212
58.50 187
58.52 194
58.54 193
58.56 179
58.58 224
58.60 223
58.62 186
58.64 187
58.66 161
58.68 188
58.70 201
58.72 200
58.74 192
58.76 184
58.78 200
58.80 213
58.82 197
58.84 197
58.86 190
58.88 221
58.90 205
58.92 190
58.94 170
58.96 170
58.98 207
59.00 187
59.02 188
59.04 220
59.06 187
59.08 191
59.10 205
59.12 208
59.14 208
59.16 188
59.18 177
59.20 208
59.22 182
59.24 205
59.26 182
59.28 200
59.30 202
59.32 168
59.34 214
59.36 191
59.38 181
59.40 185
59.42 218
59.44 196
59.46 214
59.48 217
59.50 219
59.52 191
59.54 207
59.56 189
59.58 216
59.60 197
59.62 174
59.64 190
59.66 212
59.68 206
59.70 224
59.72 199
59.74 183
59.76 199
59.78 190
59.80 201
59.82 197
59.84 209
59.86 205
59.88 173
59.90 166
59.92 180
59.94 192
59.96 207
59.98 187
60.00 198
60.02 197
60.04 200
60.06 199
60.08 206
60.10 198
60.12 201
60.14 195
60.16 209
60.18 171
60.20 187
60.22 187
60.24 214
60.26 176
60.28 196
60.30 217
60.32 201
60.34 170
60.36 193
60.38 193
60.40 191
60.42 191
60.44 214
60.46 208
60.48 194
60.50 194
60.52 204
60.54 227
60.56 227
60.58 198
60.60 217
60.62 194
60.64 209
60.66 208
60.68 196
60.70 222
60.72 201
60.74 216
60.76 204
60.78 215
60.80 192
60.82 219
60.84 217
60.86 208
60.88 234
60.90 207
60.92 230
60.94 212
60.96 223
60.98 253
61.00 216
61.02 208
61.04 217
61.06 223
61.08 223
61.10 216
61.12 236
61.14 223
61.16 211
61.18 201
61.20 262
61.22 199
61.24 238
61.26 237
61.28 237
61.30 242
61.32 263
61.34 230
61.36 241
61.38 243
61.40 252
61.42 244
61.44 250
61.46 229
61.48 259
61.50 256
61.52 305
61.54 251
61.56 275
61.58 288
61.60 253
61.62 269
61.64 266
61.66 254
61.68 266
61.70 238
61.72 286
61.74 286
61.76 299
61.78 296
61.80 277
61.82 282
61.84 292
61.86 313
61.88 297
61.90 295
61.92 326
61.94 311
61.96 341
61.98 346
62.00 311
62.02 353
62.04 354
62.06 403
62.08 362
62.10 346
62.12 363
62.14 407
62.16 391
62.18 432
62.20 427
62.22 427
62.24 447
62.26 476
62.28 495
62.30 543
62.32 561
62.34 611
62.36 666
62.38 669
62.40 741
62.42 824
62.44 899
62.46 1020
62.48 1103
62.50 1230
62.52 1322
62.54 1528
62.56 1780
62.58 2003
62.60 2162
62.62 2514
62.64 2989
62.66 3505
62.68 4402
62.70 5573
62.72 7236
62.74 9647
62.76 13117
62.78 17886
62.80 22283
62.82 25916
62.84 26752
62.86 24878
62.88 20797
62.90 16547
62.92 13385
62.94 12585
62.96 13095
62.98 14022
63.00 14794
63.02 14740
63.04 13111
63.06 10421
63.08 7862
63.10 5761
63.12 4401
63.14 3313
63.16 2677
63.18 2262
63.20 1918
63.22 1605
63.24 1409
63.26 1234
63.28 1115
63.30 1021
63.32 942
63.34 916
63.36 816
63.38 672
63.40 642
63.42 586
63.44 575
63.46 548
63.48 505
63.50 497
63.52 480
63.54 469
63.56 452
63.58 435
63.60 393
63.62 383
63.64 348
63.66 386
63.68 388
63.70 381
63.72 352
63.74 351
63.76 333
63.78 327
63.80 351
63.82 308
63.84 313
63.86 289
63.88 306
63.90 283
63.92 284
63.94 258
63.96 283
63.98 305
64.00 308
64.02 256
64.04 316
64.06 281
64.08 298
64.10 256
64.12 261
64.14 257
64.16 234
64.18 260
64.20 252
64.22 253
64.24 238
64.26 246
64.28 267
64.30 251
64.32 269
64.34 248
64.36 247
64.38 227
64.40 242
64.42 236
64.44 232
64.46 220
64.48 214
64.50 241
64.52 225
64.54 239
64.56 239
64.58 216
64.60 218
64.62 221
64.64 219
64.66 212
64.68 221
64.70 225
64.72 200
64.74 226
64.76 220
64.78 217
64.80 228
64.82 218
64.84 242
64.86 207
64.88 256
64.90 204
64.92 226
64.94 231
64.96 262
64.98 215
65.00 241
65.02 228
65.04 244
65.06 230
65.08 230
65.10 208
65.12 214
65.14 224
65.16 223
65.18 256
65.20 225
65.22 222
65.24 224
65.26 248
65.28 202
65.30 228
65.32 262
65.34 225
65.36 227
65.38 232
65.40 234
65.42 252
65.44 245
65.46 221
65.48 224
65.50 238
65.52 248
65.54 246
65.56 245
65.58 240
65.60 257
65.62 250
65.64 246
65.66 229
65.68 257
65.70 289
65.72 261
65.74 257
65.76 253
65.78 274
65.80 265
65.82 282
65.84 300
65.86 270
65.88 317
65.90 312
65.92 320
65.94 323
65.96 347
65.98 349
66.00 392
66.02 413
66.04 449
66.06 479
66.08 535
66.10 545
66.12 616
66.14 710
66.16 772
66.18 952
66.20 1002
66.22 1284
66.24 1521
66.26 2019
66.28 2456
66.30 3167
66.32 3908
66.34 4372
66.36 4664
66.38 4200
66.40 3561
66.42 2906
66.44 2396
66.46 2213
66.48 2215
66.50 2362
66.52 2544
66.54 2578
66.56 2665
66.58 2331
66.60 1833
66.62 1394
66.64 1071
66.66 878
66.68 770
66.70 673
66.72 565
66.74 538
66.76 510
66.78 463
66.80 460
66.82 399
66.84 408
66.86 431
66.88 418
66.90 424
66.92 405
66.94 394
66.96 401
66.98 383
67.00 390
67.02 422
67.04 341
67.06 359
67.08 399
67.10 377
67.12 393
67.14 386
67.16 415
67.18 405
67.20 427
67.22 409
67.24 459
67.26 485
67.28 450
67.30 485
67.32 529
67.34 531
67.36 553
67.38 560
67.40 581
67.42 657
67.44 669
67.46 767
67.48 793
67.50 892
67.52 919
67.54 1003
67.56 1098
67.58 1132
67.60 1319
67.62 1435
67.64 1593
67.66 1725
67.68 2061
67.70 2231
67.72 2599
67.74 3115
67.76 3812
67.78 4624
67.80 6008
67.82 7770
67.84 10203
67.86 13446
67.88 16625
67.90 19023
67.92 19751
67.94 19079
67.96 16848
67.98 13843
68.00 11628
68.02 10368
68.04 9824
68.06 10261
68.08 10808
68.10 11187
68.12 10974
68.14 10542
68.16 8906
68.18 6970
68.20 5436
68.22 4157
68.24 3352
68.26 2703
68.28 2246
68.30 1959
68.32 1699
68.34 1435
68.36 1355
68.38 1200
68.40 1120
68.42 1020
68.44 965
68.46 856
68.48 820
68.50 799
68.52 803
68.54 740
68.56 754
68.58 729
68.60 743
68.62 675
68.64 765
68.66 740
68.68 810
68.70 824
68.72 850
68.74 919
68.76 962
68.78 972
68.80 1153
68.82 1198
68.84 1397
68.86 1507
68.88 1809
68.90 2095
68.92 2652
68.94 3278
68.96 4296
68.98 5423
69.00 6868
69.02 8446
69.04 9371
69.06 10013
69.08 9474
69.10 8362
69.12 6955
69.14 5872
69.16 5309
69.18 4966
69.20 5078
69.22 5410
69.24 5675
69.26 5665
69.28 5248
69.30 4517
69.32 3673
69.34 2932
69.36 2278
69.38 1839
69.40 1593
69.42 1297
69.44 1108
69.46 1022
69.48 862
69.50 792
69.52 669
69.54 653
69.56 598
69.58 541
69.60 494
69.62 478
69.64 459
69.66 432
69.68 400
69.70 368
69.72 387
69.74 324
69.76 344
69.78 285
69.80 323
69.82 319
69.84 337
69.86 262
69.88 297
69.90 253
69.92 278
69.94 259
69.96 234
69.98 256
70.00 229
70.02 245
70.04 271
70.06 230
70.08 270
70.10 274
70.12 254
70.14 224
70.16 234
70.18 186
70.20 228
70.22 202
70.24 213
70.26 212
70.28 209
70.30 200
70.32 219
70.34 248
70.36 211
70.38 215
70.40 202
70.42 195
70.44 194
70.46 205
70.48 206
70.50 201
70.52 174
70.54 194
70.56 201
70.58 199
70.60 182
70.62 191
70.64 204
70.66 207
70.68 181
70.70 189
70.72 170
70.74 202
70.76 170
70.78 173
70.80 187
70.82 176
70.84 183
70.86 200
70.88 138
70.90 206
70.92 193
70.94 183
70.96 185
70.98 180
71.00 135
71.02 184
71.04 174
71.06 177
71.08 186
71.10 163
71.12 166
71.14 186
71.16 179
71.18 145
71.20 176
71.22 156
71.24 155
71.26 153
71.28 182
71.30 161
71.32 184
71.34 174
71.36 167
71.38 172
71.40 182
71.42 170
71.44 134
71.46 168
71.48 161
71.50 152
71.52 160
71.54 159
71.56 148
71.58 172
71.60 162
71.62 180
71.64 163
71.66 198
71.68 177
71.70 165
71.72 177
71.74 169
71.76 150
71.78 179
71.80 149
71.82 143
71.84 147
71.86 155
71.88 188
71.90 181
71.92 170
71.94 188
71.96 174
71.98 166
72.00 171
72.02 199
72.04 188
72.06 179
72.08 209
72.10 171
72.12 204
72.14 225
72.16 217
72.18 211
72.20 232
72.22 224
72.24 239
72.26 238
72.28 250
72.30 301
72.32 307
72.34 355
72.36 379
72.38 466
72.40 505
72.42 615
72.44 764
72.46 961
72.48 1280
72.50 1994
72.52 2393
72.54 2569
72.56 2373
72.58 1906
72.60 1442
72.62 1116
72.64 938
72.66 867
72.68 858
72.70 1029
72.72 1242
72.74 1337
72.76 1319
72.78 1210
72.80 981
72.82 751
72.84 624
72.86 470
72.88 376
72.90 328
72.92 287
72.94 247
72.96 230
72.98 254
73.00 252
73.02 219
73.04 209
73.06 171
73.08 217
73.10 169
73.12 162
73.14 173
73.16 170
73.18 165
73.20 149
73.22 186
73.24 185
73.26 156
73.28 144
73.30 160
73.32 152
73.34 159
73.36 161
73.38 156
73.40 148
73.42 146
73.44 155
73.46 152
73.48 158
73.50 165
73.52 161
73.54 140
73.56 147
73.58 153
73.60 138
73.62 149
73.64 152
73.66 151
73.68 156
73.70 158
73.72 156
73.74 142
73.76 141
73.78 145
73.80 123
73.82 131
73.84 165
73.86 134
73.88 158
73.90 143
73.92 159
73.94 160
73.96 136
73.98 118
74.00 142
74.02 137
74.04 138
74.06 134
74.08 147
74.10 143
74.12 145
74.14 123
74.16 149
74.18 140
74.20 134
74.22 130
74.24 156
74.26 134
74.28 132
74.30 118
74.32 138
74.34 103
74.36 136
74.38 115
74.40 136
74.42 142
74.44 149
74.46 134
74.48 138
74.50 123
74.52 136
74.54 138
74.56 121
74.58 127
74.60 124
74.62 133
74.64 135
74.66 125
74.68 134
74.70 145
74.72 119
74.74 129
74.76 132
74.78 140
74.80 120
74.82 136
74.84 164
74.86 133
74.88 141
74.90 140
74.92 137
74.94 134
74.96 130
74.98 141
75.00 136
75.02 124
75.04 127
75.06 131
75.08 124
75.10 114
75.12 126
75.14 128
75.16 144
75.18 139
75.20 128
75.22 135
75.24 139
75.26 131
75.28 110
75.30 136
75.32 124
75.34 145
75.36 159
75.38 134
75.40 123
75.42 125
75.44 132
75.46 121
75.48 149
75.50 151
75.52 125
75.54 138
75.56 150
75.58 133
75.60 150
75.62 114
75.64 131
75.66 129
75.68 131
75.70 148
75.72 132
75.74 136
75.76 149
75.78 125
75.80 165
75.82 123
75.84 146
75.86 134
75.88 143
75.90 136
75.92 139
75.94 141
75.96 132
75.98 155
76.00 170
76.02 152
76.04 160
76.06 154
76.08 152
76.10 145
76.12 135
76.14 144
76.16 159
76.18 163
76.20 158
76.22 157
76.24 158
76.26 158
76.28 138
76.30 165
76.32 176
76.34 170
76.36 192
76.38 237
76.40 203
76.42 198
76.44 200
76.46 236
76.48 224
76.50 223
76.52 248
76.54 250
76.56 271
76.58 284
76.60 272
76.62 303
76.64 333
76.66 364
76.68 417
76.70 426
76.72 479
76.74 563
76.76 608
76.78 786
76.80 966
76.82 1113
76.84 1523
76.86 1903
76.88 2383
76.90 2803
76.92 3130
76.94 3133
76.96 2902
76.98 2562
77.00 2073
77.02 1769
77.04 1521
77.06 1428
77.08 1500
77.10 1516
77.12 1680
77.14 1806
77.16 1816
77.18 1726
77.20 1484
77.22 1309
77.24 1088
77.26 807
77.28 721
77.30 587
77.32 509
77.34 434
77.36 404
77.38 336
77.40 295
77.42 264
77.44 264
77.46 288
77.48 227
77.50 260
77.52 220
77.54 207
77.56 217
77.58 223
77.60 190
77.62 204
77.64 179
77.66 179
77.68 162
77.70 144
77.72 156
77.74 160
77.76 149
77.78 162
77.80 150
77.82 132
77.84 143
77.86 133
77.88 139
77.90 159
77.92 135
77.94 142
77.96 128
77.98 165
78.00 122
78.02 144
78.04 121
78.06 153
78.08 113
78.10 118
78.12 134
78.14 135
78.16 126
78.18 119
78.20 156
78.22 139
78.24 128
78.26 139
78.28 134
78.30 136
78.32 131
78.34 134
78.36 113
78.38 128
78.40 105
78.42 131
78.44 125
78.46 133
78.48 118
78.50 126
78.52 120
78.54 116
78.56 133
78.58 112
78.60 126
78.62 124
78.64 128
78.66 117
78.68 110
78.70 111
78.72 125
78.74 131
78.76 141
78.78 126
78.80 123
78.82 132
78.84 108
78.86 121
78.88 131
78.90 113
78.92 110
78.94 130
78.96 109
78.98 113
79.00 129
79.02 106
79.04 141
79.06 133
79.08 134
79.10 120
79.12 104
79.14 127
79.16 121
79.18 113
79.20 111
79.22 109
79.24 104
79.26 141
79.28 140
79.30 117
79.32 92
79.34 118
79.36 135
79.38 120
79.40 126
79.42 124
79.44 93
79.46 115
79.48 124
79.50 127
79.52 112
79.54 127
79.56 124
79.58 107
79.60 128
79.62 99
79.64 125
79.66 96
79.68 107
79.70 112
79.72 115
79.74 103
79.76 109
79.78 125
79.80 123
79.82 116
79.84 149
79.86 121
79.88 112
79.90 112
79.92 119
79.94 128
79.96 119
79.98 131
80.00 141
