27 47
27.02 51
27.04 33
27.06 43
27.08 45
27.10 36
27.12 38
27.14 36
27.16 35
27.18 34
27.20 35
27.22 33
27.24 45
27.26 35
27.28 42
27.30 42
27.32 40
27.34 42
27.36 36
27.38 32
27.40 39
27.42 44
27.44 47
27.46 48
27.48 40
27.50 31
27.52 41
27.54 51
27.56 47
27.58 35
27.60 30
27.62 42
27.64 34
27.66 36
27.68 41
27.70 41
27.72 47
27.74 44
27.76 45
27.78 34
27.80 38
27.82 30
27.84 34
27.86 42
27.88 39
27.90 41
27.92 34
27.94 43
27.96 42
27.98 40
28.00 37
28.02 38
28.04 26
28.06 47
28.08 41
28.10 39
28.12 44
28.14 44
28.16 35
28.18 33
28.20 45
28.22 44
28.24 38
28.26 43
28.28 35
28.30 44
28.32 33
28.34 39
28.36 30
28.38 36
28.40 34
28.42 40
28.44 35
28.46 32
28.48 33
28.50 43
28.52 37
28.54 38
28.56 48
28.58 38
28.60 38
28.62 39
28.64 37
28.66 47
28.68 56
28.70 33
28.72 37
28.74 41
28.76 44
28.78 34
28.80 47
28.82 40
28.84 50
28.86 45
28.88 50
28.90 34
28.92 47
28.94 35
28.96 52
28.98 35
29.00 45
29.02 38
29.04 33
29.06 35
29.08 46
29.10 47
29.12 47
29.14 44
29.16 49
29.18 44
29.20 46
29.22 40
29.24 61
29.26 53
29.28 32
29.30 32
29.32 39
29.34 37
29.36 49
29.38 37
29.40 49
29.42 48
29.44 52
29.46 45
29.48 46
29.50 54
29.52 58
29.54 45
29.56 43
29.58 28
29.60 55
29.62 42
29.64 39
29.66 42
29.68 51
29.70 43
29.72 52
29.74 50
29.76 41
29.78 47
29.80 44
29.82 52
29.84 49
29.86 46
29.88 56
29.90 47
29.92 48
29.94 48
29.96 52
29.98 54
30.00 43
30.02 44
30.04 48
30.06 65
30.08 54
30.10 48
30.12 52
30.14 45
30.16 45
30.18 42
30.20 56
30.22 54
30.24 32
30.26 40
30.28 67
30.30 54
30.32 49
30.34 52
30.36 47
30.38 52
30.40 55
30.42 45
30.44 45
30.46 59
30.48 58
30.50 44
30.52 42
30.54 55
30.56 51
30.58 67
30.60 47
30.62 63
30.64 58
30.66 54
30.68 68
30.70 57
30.72 60
30.74 67
30.76 67
30.78 57
30.80 66
30.82 71
30.84 63
30.86 51
30.88 66
30.90 75
30.92 59
30.94 79
30.96 74
30.98 81
31.00 85
31.02 94
31.04 94
31.06 90
31.08 100
31.10 99
31.12 111
31.14 118
31.16 119
31.18 139
31.20 119
31.22 136
31.24 145
31.26 162
31.28 156
31.30 174
31.32 199
31.34 232
31.36 238
31.38 287
31.40 362
31.42 394
31.44 456
31.46 532
31.48 602
31.50 800
31.52 968
31.54 1273
31.56 1598
31.58 2229
31.60 2913
31.62 3830
31.64 4903
31.66 6557
31.68 9122
31.70 14029
31.72 20730
31.74 26417
31.76 26453
31.78 21544
31.80 16751
31.82 15795
31.84 13993
31.86 10615
31.88 6036
31.90 3540
31.92 2315
31.94 1738
31.96 1349
31.98 1016
32.00 786
32.02 637
32.04 545
32.06 452
32.08 364
32.10 317
32.12 302
32.14 258
32.16 230
32.18 220
32.20 206
32.22 204
32.24 153
32.26 157
32.28 177
32.30 143
32.32 136
32.34 111
32.36 99
32.38 113
32.40 79
32.42 100
32.44 99
32.46 79
32.48 92
32.50 95
32.52 75
32.54 86
32.56 75
32.58 73
32.60 97
32.62 73
32.64 85
32.66 69
32.68 69
32.70 84
32.72 62
32.74 75
32.76 65
32.78 59
32.80 79
32.82 78
32.84 74
32.86 59
32.88 83
32.90 70
32.92 73
32.94 64
32.96 61
32.98 65
33.00 61
33.02 61
33.04 61
33.06 66
33.08 51
33.10 52
33.12 47
33.14 89
33.16 68
33.18 78
33.20 70
33.22 76
33.24 71
33.26 63
33.28 62
33.30 57
33.32 77
33.34 56
33.36 64
33.38 66
33.40 86
33.42 64
33.44 61
33.46 62
33.48 71
33.50 81
33.52 77
33.54 91
33.56 71
33.58 73
33.60 88
33.62 82
33.64 85
33.66 79
33.68 76
33.70 90
33.72 90
33.74 86
33.76 98
33.78 92
33.80 89
33.82 93
33.84 107
33.86 106
33.88 107
33.90 118
33.92 121
33.94 124
33.96 127
33.98 140
34.00 140
34.02 177
34.04 178
34.06 197
34.08 220
34.10 264
34.12 315
34.14 400
34.16 462
34.18 649
34.20 849
34.22 1133
34.24 1498
34.26 1988
34.28 2333
34.30 3016
34.32 4621
34.34 6533
34.36 9383
34.38 12950
34.40 14656
34.42 14059
34.44 10550
34.46 8586
34.48 8131
34.50 7719
34.52 5682
34.54 3320
34.56 1983
34.58 1305
34.60 962
34.62 747
34.64 652
34.66 510
34.68 421
34.70 339
34.72 302
34.74 268
34.76 205
34.78 194
34.80 187
34.82 176
34.84 144
34.86 151
34.88 155
34.90 123
34.92 117
34.94 140
34.96 131
34.98 124
35.00 114
35.02 116
35.04 91
35.06 98
35.08 86
35.10 109
35.12 110
35.14 117
35.16 95
35.18 114
35.20 102
35.22 97
35.24 100
35.26 102
35.28 123
35.30 94
35.32 120
35.34 111
35.36 109
35.38 129
35.40 125
35.42 139
35.44 137
35.46 114
35.48 162
35.50 126
35.52 154
35.54 166
35.56 180
35.58 174
35.60 186
35.62 198
35.64 220
35.66 217
35.68 226
35.70 256
35.72 264
35.74 270
35.76 326
35.78 320
35.80 332
35.82 379
35.84 420
35.86 496
35.88 567
35.90 615
35.92 685
35.94 819
35.96 1047
35.98 1273
36.00 1736
36.02 2076
36.04 2586
36.06 3235
36.08 4014
36.10 5233
36.12 7015
36.14 9854
36.16 13584
36.18 19191
36.20 28038
36.22 35704
36.24 37827
36.26 31640
36.28 24089
36.30 21416
36.32 21635
36.34 19189
36.36 14069
36.38 8539
36.40 5309
36.42 3627
36.44 2771
36.46 2118
36.48 1699
36.50 1432
36.52 1158
36.54 937
36.56 768
36.58 613
36.60 589
36.62 466
36.64 436
36.66 365
36.68 315
36.70 330
36.72 265
36.74 249
36.76 223
36.78 224
36.80 232
36.82 192
36.84 162
36.86 161
36.88 137
36.90 165
36.92 137
36.94 141
36.96 124
36.98 145
37.00 103
37.02 114
37.04 102
37.06 125
37.08 100
37.10 99
37.12 97
37.14 75
37.16 92
37.18 67
37.20 75
37.22 80
37.24 80
37.26 82
37.28 61
37.30 78
37.32 69
37.34 76
37.36 60
37.38 80
37.40 74
37.42 72
37.44 68
37.46 72
37.48 53
37.50 78
37.52 68
37.54 75
37.56 63
37.58 81
37.60 68
37.62 78
37.64 67
37.66 68
37.68 62
37.70 48
37.72 52
37.74 67
37.76 61
37.78 67
37.80 74
37.82 60
37.84 54
37.86 51
37.88 55
37.90 54
37.92 72
37.94 58
37.96 51
37.98 47
38.00 64
38.02 50
38.04 59
38.06 46
38.08 45
38.10 45
38.12 63
38.14 58
38.16 73
38.18 59
38.20 64
38.22 48
38.24 49
38.26 52
38.28 64
38.30 50
38.32 61
38.34 60
38.36 50
38.38 44
38.40 53
38.42 50
38.44 50
38.46 48
38.48 51
38.50 58
38.52 49
38.54 62
38.56 50
38.58 58
38.60 58
38.62 59
38.64 42
38.66 57
38.68 55
38.70 50
38.72 71
38.74 53
38.76 53
38.78 39
38.80 58
38.82 62
38.84 43
38.86 48
38.88 35
38.90 53
38.92 52
38.94 42
38.96 66
38.98 52
39.00 54
39.02 43
39.04 46
39.06 50
39.08 44
39.10 48
39.12 68
39.14 48
39.16 54
39.18 50
39.20 53
39.22 38
39.24 56
39.26 60
39.28 47
39.30 56
39.32 57
39.34 48
39.36 54
39.38 51
39.40 52
39.42 64
39.44 45
39.46 50
39.48 49
39.50 54
39.52 46
39.54 47
39.56 44
39.58 45
39.60 47
39.62 52
39.64 52
39.66 53
39.68 45
39.70 48
39.72 45
39.74 49
39.76 52
39.78 61
39.80 37
39.82 48
39.84 37
39.86 60
39.88 40
39.90 56
39.92 53
39.94 55
39.96 54
39.98 41
40.00 46
40.02 50
40.04 51
40.06 52
40.08 58
40.10 59
40.12 55
40.14 38
40.16 59
40.18 38
40.20 42
40.22 58
40.24 43
40.26 45
40.28 46
40.30 44
40.32 39
40.34 51
40.36 41
40.38 38
40.40 46
40.42 38
40.44 42
40.46 53
40.48 49
40.50 43
40.52 39
40.54 52
40.56 40
40.58 52
40.60 38
40.62 55
40.64 56
40.66 50
40.68 46
40.70 37
40.72 41
40.74 34
40.76 51
40.78 27
40.80 47
40.82 47
40.84 35
40.86 42
40.88 46
40.90 36
40.92 49
40.94 37
40.96 34
40.98 49
41.00 45
41.02 40
41.04 40
41.06 47
41.08 43
41.10 37
41.12 52
41.14 37
41.16 46
41.18 49
41.20 36
41.22 56
41.24 44
41.26 40
41.28 44
41.30 51
41.32 43
41.34 47
41.36 43
41.38 44
41.40 47
41.42 50
41.44 46
41.46 44
41.48 46
41.50 37
41.52 44
41.54 46
41.56 35
41.58 47
41.60 42
41.62 46
41.64 50
41.66 33
41.68 46
41.70 35
41.72 49
41.74 46
41.76 49
41.78 37
41.80 32
41.82 43
41.84 27
41.86 51
41.88 47
41.90 57
41.92 53
41.94 52
41.96 47
41.98 37
42.00 47
42.02 45
42.04 41
42.06 38
42.08 39
42.10 46
42.12 40
42.14 36
42.16 40
42.18 43
42.20 36
42.22 30
42.24 47
42.26 44
42.28 39
42.30 52
42.32 46
42.34 34
42.36 44
42.38 51
42.40 42
42.42 50
42.44 60
42.46 35
42.48 36
42.50 46
42.52 54
42.54 43
42.56 51
42.58 45
42.60 47
42.62 51
42.64 40
42.66 40
42.68 42
42.70 59
42.72 32
42.74 55
42.76 34
42.78 49
42.80 39
42.82 44
42.84 44
42.86 30
42.88 52
42.90 53
42.92 47
42.94 40
42.96 61
42.98 39
43.00 46
43.02 40
43.04 39
43.06 39
43.08 40
43.10 46
43.12 46
43.14 41
43.16 45
43.18 41
43.20 53
43.22 47
43.24 35
43.26 49
43.28 35
43.30 35
43.32 50
43.34 29
43.36 35
43.38 46
43.40 44
43.42 41
43.44 53
43.46 38
43.48 47
43.50 43
43.52 36
43.54 41
43.56 41
43.58 54
43.60 39
43.62 46
43.64 38
43.66 38
43.68 43
43.70 27
43.72 44
43.74 38
43.76 38
43.78 46
43.80 48
43.82 50
43.84 30
43.86 45
43.88 48
43.90 44
43.92 44
43.94 57
43.96 41
43.98 42
44.00 58
44.02 40
44.04 39
44.06 42
44.08 47
44.10 51
44.12 49
44.14 33
44.16 48
44.18 42
44.20 51
44.22 39
44.24 46
44.26 63
44.28 35
44.30 45
44.32 42
44.34 44
44.36 41
44.38 30
44.40 58
44.42 49
44.44 34
44.46 53
44.48 39
44.50 46
44.52 41
44.54 36
44.56 58
44.58 53
44.60 47
44.62 33
44.64 45
44.66 32
44.68 48
44.70 36
44.72 40
44.74 51
44.76 53
44.78 55
44.80 52
44.82 52
44.84 49
44.86 43
44.88 39
44.90 39
44.92 34
44.94 51
44.96 40
44.98 40
45.00 47
45.02 50
45.04 47
45.06 45
45.08 57
45.10 37
45.12 52
45.14 42
45.16 56
45.18 44
45.20 43
45.22 48
45.24 56
45.26 43
45.28 59
45.30 45
45.32 25
45.34 50
45.36 42
45.38 44
45.40 44
45.42 43
45.44 43
45.46 40
45.48 50
45.50 49
45.52 31
45.54 46
45.56 47
45.58 60
45.60 50
45.62 42
45.64 48
45.66 52
45.68 51
45.70 46
45.72 50
45.74 43
45.76 60
45.78 49
45.80 53
45.82 53
45.84 47
45.86 45
45.88 56
45.90 44
45.92 58
45.94 51
45.96 49
45.98 49
46.00 37
46.02 47
46.04 43
46.06 47
46.08 44
46.10 43
46.12 40
46.14 46
46.16 46
46.18 52
46.20 52
46.22 41
46.24 55
46.26 50
46.28 44
46.30 48
46.32 49
46.34 73
46.36 63
46.38 45
46.40 56
46.42 38
46.44 44
46.46 45
46.48 61
46.50 51
46.52 71
46.54 58
46.56 45
46.58 56
46.60 62
46.62 57
46.64 72
46.66 58
46.68 69
46.70 72
46.72 53
46.74 74
46.76 60
46.78 75
46.80 80
46.82 82
46.84 72
46.86 84
46.88 74
46.90 90
46.92 83
46.94 82
46.96 70
46.98 93
47.00 113
47.02 111
47.04 121
47.06 113
47.08 111
47.10 127
47.12 144
47.14 152
47.16 178
47.18 211
47.20 239
47.22 284
47.24 291
47.26 373
47.28 447
47.30 532
47.32 664
47.34 742
47.36 914
47.38 1176
47.40 1474
47.42 2081
47.44 3016
47.46 4580
47.48 6339
47.50 7974
47.52 8313
47.54 6956
47.56 5236
47.58 4265
47.60 4219
47.62 4737
47.64 4740
47.66 4103
47.68 2923
47.70 1976
47.72 1378
47.74 959
47.76 758
47.78 605
47.80 448
47.82 415
47.84 312
47.86 282
47.88 242
47.90 232
47.92 185
47.94 188
47.96 182
47.98 132
48.00 142
48.02 132
48.04 137
48.06 100
48.08 104
48.10 109
48.12 106
48.14 91
48.16 89
48.18 83
48.20 104
48.22 79
48.24 80
48.26 71
48.28 78
48.30 63
48.32 73
48.34 60
48.36 64
48.38 64
48.40 64
48.42 52
48.44 54
48.46 61
48.48 59
48.50 60
48.52 54
48.54 69
48.56 58
48.58 38
48.60 67
48.62 67
48.64 44
48.66 49
48.68 53
48.70 49
48.72 43
48.74 47
48.76 55
48.78 42
48.80 46
48.82 53
48.84 46
48.86 58
48.88 53
48.90 50
48.92 52
48.94 40
48.96 50
48.98 58
49.00 56
49.02 35
49.04 53
49.06 63
49.08 45
49.10 47
49.12 48
49.14 42
49.16 47
49.18 49
49.20 49
49.22 44
49.24 44
49.26 51
49.28 47
49.30 36
49.32 37
49.34 59
49.36 41
49.38 38
49.40 43
49.42 43
49.44 45
49.46 37
49.48 43
49.50 42
49.52 55
49.54 38
49.56 54
49.58 39
49.60 40
49.62 51
49.64 36
49.66 41
49.68 45
49.70 54
49.72 41
49.74 45
49.76 43
49.78 41
49.80 42
49.82 43
49.84 58
49.86 41
49.88 41
49.90 35
49.92 48
49.94 43
49.96 30
49.98 57
50.00 32
50.02 28
50.04 54
50.06 54
50.08 38
50.10 40
50.12 45
50.14 57
50.16 42
50.18 55
50.20 44
50.22 43
50.24 42
50.26 42
50.28 51
50.30 43
50.32 46
50.34 46
50.36 34
50.38 57
50.40 34
50.42 44
50.44 44
50.46 54
50.48 42
50.50 52
50.52 47
50.54 64
50.56 50
50.58 46
50.60 40
50.62 43
50.64 43
50.66 52
50.68 41
50.70 51
50.72 48
50.74 52
50.76 44
50.78 49
50.80 52
50.82 44
50.84 43
50.86 53
50.88 43
50.90 55
50.92 47
50.94 39
50.96 44
50.98 54
51.00 50
51.02 39
51.04 56
51.06 49
51.08 39
51.10 39
51.12 51
51.14 35
51.16 45
51.18 55
51.20 55
51.22 57
51.24 52
51.26 50
51.28 52
51.30 52
51.32 56
51.34 40
51.36 47
51.38 51
51.40 45
51.42 45
51.44 38
51.46 50
51.48 41
51.50 51
51.52 40
51.54 46
51.56 44
51.58 46
51.60 55
51.62 48
51.64 46
51.66 44
51.68 43
51.70 41
51.72 63
51.74 39
51.76 46
51.78 49
51.80 40
51.82 49
51.84 43
51.86 47
51.88 39
51.90 52
51.92 60
51.94 62
51.96 49
51.98 52
52.00 40
52.02 44
52.04 36
52.06 44
52.08 53
52.10 48
52.12 63
52.14 44
52.16 37
52.18 49
52.20 51
52.22 42
52.24 50
52.26 45
52.28 43
52.30 48
52.32 51
52.34 45
52.36 47
52.38 45
52.40 49
52.42 42
52.44 44
52.46 41
52.48 56
52.50 64
52.52 50
52.54 39
52.56 55
52.58 51
52.60 58
52.62 57
52.64 40
52.66 43
52.68 47
52.70 50
52.72 53
52.74 47
52.76 48
52.78 55
52.80 59
52.82 44
52.84 56
52.86 50
52.88 39
52.90 39
52.92 49
52.94 38
52.96 57
52.98 55
53.00 53
53.02 53
53.04 54
53.06 51
53.08 56
53.10 57
53.12 37
53.14 44
53.16 45
53.18 56
53.20 51
53.22 46
53.24 44
53.26 54
53.28 56
53.30 49
53.32 45
53.34 39
53.36 48
53.38 61
53.40 40
53.42 52
53.44 53
53.46 44
53.48 51
53.50 47
53.52 50
53.54 46
53.56 57
53.58 42
53.60 46
53.62 51
53.64 56
53.66 51
53.68 51
53.70 49
53.72 63
53.74 50
53.76 49
53.78 53
53.80 59
53.82 50
53.84 60
53.86 53
53.88 42
53.90 40
53.92 56
53.94 61
53.96 51
53.98 49
54.00 60
54.02 36
54.04 53
54.06 47
54.08 60
54.10 49
54.12 60
54.14 58
54.16 50
54.18 53
54.20 46
54.22 52
54.24 56
54.26 62
54.28 59
54.30 61
54.32 71
54.34 58
54.36 57
54.38 40
54.40 47
54.42 39
54.44 62
54.46 43
54.48 51
54.50 48
54.52 49
54.54 57
54.56 61
54.58 53
54.60 53
54.62 61
54.64 47
54.66 62
54.68 43
54.70 57
54.72 58
54.74 50
54.76 55
54.78 68
54.80 63
54.82 57
54.84 58
54.86 65
54.88 78
54.90 55
54.92 60
54.94 54
54.96 46
54.98 61
55.00 74
55.02 88
55.04 53
55.06 76
55.08 73
55.10 66
55.12 54
55.14 58
55.16 63
55.18 77
55.20 68
55.22 49
55.24 80
55.26 87
55.28 58
55.30 67
55.32 66
55.34 70
55.36 70
55.38 67
55.40 65
55.42 83
55.44 86
55.46 82
55.48 75
55.50 85
55.52 67
55.54 80
55.56 79
55.58 80
55.60 94
55.62 100
55.64 99
55.66 87
55.68 74
55.70 84
55.72 103
55.74 108
55.76 84
55.78 99
55.80 95
55.82 105
55.84 117
55.86 109
55.88 105
55.90 127
55.92 118
55.94 126
55.96 140
55.98 147
56.00 156
56.02 160
56.04 160
56.06 171
56.08 180
56.10 185
56.12 220
56.14 223
56.16 270
56.18 270
56.20 294
56.22 341
56.24 400
56.26 438
56.28 542
56.30 571
56.32 671
56.34 751
56.36 879
56.38 1048
56.40 1245
56.42 1508
56.44 1852
56.46 2625
56.48 3522
56.50 4705
56.52 6330
56.54 7911
56.56 8979
56.58 9084
56.60 7842
56.62 6201
56.64 5130
56.66 4939
56.68 4975
56.70 5210
56.72 5460
56.74 4936
56.76 3942
56.78 2966
56.80 2163
56.82 1644
56.84 1309
56.86 1062
56.88 838
56.90 699
56.92 611
56.94 489
56.96 461
56.98 384
57.00 351
57.02 309
57.04 275
57.06 274
57.08 202
57.10 211
57.12 175
57.14 184
57.16 207
57.18 159
57.20 157
57.22 147
57.24 123
57.26 141
57.28 132
57.30 117
57.32 141
57.34 104
57.36 124
57.38 118
57.40 122
57.42 125
57.44 85
57.46 87
57.48 105
57.50 94
57.52 89
57.54 91
57.56 97
57.58 72
57.60 82
57.62 84
57.64 75
57.66 83
57.68 94
57.70 72
57.72 87
57.74 70
57.76 82
57.78 82
57.80 74
57.82 71
57.84 65
57.86 85
57.88 61
57.90 73
57.92 55
57.94 69
57.96 87
57.98 71
58.00 64
58.02 82
58.04 73
58.06 74
58.08 60
58.10 67
58.12 85
58.14 67
58.16 62
58.18 76
58.20 81
58.22 67
58.24 76
58.26 65
58.28 63
58.30 54
58.32 66
58.34 71
58.36 65
58.38 69
58.40 58
58.42 64
58.44 71
58.46 74
58.48 56
58.50 74
58.52 63
58.54 61
58.56 71
58.58 67
58.60 66
58.62 68
58.64 65
58.66 69
58.68 78
58.70 43
58.72 56
58.74 48
58.76 62
58.78 66
58.80 60
58.82 48
58.84 63
58.86 64
58.88 64
58.90 52
58.92 54
58.94 58
58.96 56
58.98 62
59.00 67
59.02 58
59.04 76
59.06 73
59.08 55
59.10 68
59.12 50
59.14 58
59.16 64
59.18 69
59.20 57
59.22 59
59.24 70
59.26 64
59.28 71
59.30 67
59.32 69
59.34 58
59.36 77
59.38 49
59.40 64
59.42 62
59.44 67
59.46 57
59.48 79
59.50 57
59.52 60
59.54 58
59.56 63
59.58 69
59.60 64
59.62 56
59.64 63
59.66 63
59.68 66
59.70 66
59.72 59
59.74 57
59.76 81
59.78 45
59.80 57
59.82 58
59.84 65
59.86 87
59.88 73
59.90 49
59.92 57
59.94 64
59.96 75
59.98 69
60.00 66
60.02 65
60.04 70
60.06 74
60.08 71
60.10 62
60.12 55
60.14 58
60.16 51
60.18 73
60.20 50
60.22 64
60.24 74
60.26 59
60.28 64
60.30 78
60.32 69
60.34 55
60.36 77
60.38 64
60.40 64
60.42 79
60.44 65
60.46 78
60.48 72
60.50 65
60.52 62
60.54 69
60.56 68
60.58 65
60.60 72
60.62 59
60.64 65
60.66 58
60.68 56
60.70 67
60.72 76
60.74 59
60.76 63
60.78 68
60.80 82
60.82 60
60.84 67
60.86 54
60.88 62
60.90 72
60.92 64
60.94 66
60.96 69
60.98 67
61.00 70
61.02 73
61.04 84
61.06 78
61.08 78
61.10 76
61.12 56
61.14 63
61.16 56
61.18 86
61.20 75
61.22 71
61.24 79
61.26 88
61.28 77
61.30 66
61.32 86
61.34 68
61.36 62
61.38 76
61.40 80
61.42 81
61.44 81
61.46 67
61.48 75
61.50 62
61.52 67
61.54 74
61.56 75
61.58 97
61.60 88
61.62 67
61.64 83
61.66 70
61.68 85
61.70 89
61.72 84
61.74 82
61.76 89
61.78 79
61.80 102
61.82 80
61.84 99
61.86 88
61.88 93
61.90 81
61.92 94
61.94 85
61.96 103
61.98 96
62.00 87
62.02 120
62.04 112
62.06 114
62.08 105
62.10 115
62.12 124
62.14 125
62.16 115
62.18 140
62.20 170
62.22 120
62.24 133
62.26 148
62.28 170
62.30 160
62.32 163
62.34 191
62.36 210
62.38 196
62.40 231
62.42 254
62.44 271
62.46 306
62.48 339
62.50 402
62.52 422
62.54 519
62.56 542
62.58 636
62.60 666
62.62 746
62.64 928
62.66 1044
62.68 1269
62.70 1585
62.72 2099
62.74 2749
62.76 3909
62.78 5413
62.80 7176
62.82 8757
62.84 9431
62.86 8770
62.88 6921
62.90 5181
62.92 4202
62.94 4025
62.96 4168
62.98 4677
63.00 5126
63.02 5078
63.04 4437
63.06 3366
63.08 2358
63.10 1708
63.12 1333
63.14 1006
63.16 866
63.18 696
63.20 584
63.22 516
63.24 447
63.26 409
63.28 355
63.30 321
63.32 287
63.34 230
63.36 229
63.38 205
63.40 190
63.42 195
63.44 180
63.46 195
63.48 161
63.50 163
63.52 153
63.54 140
63.56 121
63.58 122
63.60 121
63.62 119
63.64 128
63.66 119
63.68 111
63.70 120
63.72 97
63.74 78
63.76 131
63.78 102
63.80 108
63.82 101
63.84 95
63.86 95
63.88 96
63.90 102
63.92 86
63.94 100
63.96 84
63.98 93
64.00 101
64.02 79
64.04 79
64.06 98
64.08 84
64.10 85
64.12 90
64.14 75
64.16 86
64.18 74
64.20 62
64.22 57
64.24 59
64.26 73
64.28 81
64.30 81
64.32 68
64.34 74
64.36 69
64.38 80
64.40 70
64.42 58
64.44 67
64.46 66
64.48 83
64.50 46
64.52 62
64.54 82
64.56 80
64.58 66
64.60 76
64.62 78
64.64 87
64.66 74
64.68 85
64.70 51
64.72 70
64.74 78
64.76 69
64.78 71
64.80 75
64.82 62
64.84 58
64.86 82
64.88 56
64.90 53
64.92 71
64.94 73
64.96 86
64.98 72
65.00 69
65.02 64
65.04 66
65.06 82
65.08 69
65.10 73
65.12 74
65.14 76
65.16 88
65.18 80
65.20 71
65.22 71
65.24 76
65.26 67
65.28 61
65.30 75
65.32 66
65.34 76
65.36 91
65.38 91
65.40 79
65.42 79
65.44 66
65.46 84
65.48 75
65.50 66
65.52 79
65.54 85
65.56 82
65.58 75
65.60 83
65.62 80
65.64 84
65.66 102
65.68 77
65.70 85
65.72 86
65.74 83
65.76 74
65.78 82
65.80 88
65.82 81
65.84 87
65.86 92
65.88 86
65.90 103
65.92 95
65.94 124
65.96 110
65.98 124
66.00 138
66.02 139
66.04 119
66.06 139
66.08 150
66.10 165
66.12 177
66.14 213
66.16 239
66.18 276
66.20 313
66.22 348
66.24 474
66.26 562
66.28 833
66.30 1030
66.32 1427
66.34 1714
66.36 1886
66.38 1623
66.40 1318
66.42 975
66.44 717
66.46 673
66.48 694
66.50 826
66.52 953
66.54 967
66.56 968
66.58 841
66.60 591
66.62 409
66.64 372
66.66 273
66.68 225
66.70 232
66.72 190
66.74 163
66.76 169
66.78 158
66.80 147
66.82 140
66.84 128
66.86 134
66.88 138
66.90 133
66.92 134
66.94 118
66.96 123
66.98 119
67.00 103
67.02 110
67.04 119
67.06 128
67.08 111
67.10 116
67.12 118
67.14 120
67.16 144
67.18 142
67.20 135
67.22 147
67.24 116
67.26 126
67.28 130
67.30 131
67.32 173
67.34 156
67.36 174
67.38 200
67.40 196
67.42 228
67.44 208
67.46 257
67.48 239
67.50 263
67.52 294
67.54 295
67.56 356
67.58 377
67.60 420
67.62 447
67.64 490
67.66 581
67.68 627
67.70 733
67.72 814
67.74 992
67.76 1132
67.78 1464
67.80 1790
67.82 2276
67.84 3085
67.86 4179
67.88 5670
67.90 7017
67.92 8071
67.94 7355
67.96 6108
67.98 4621
68.00 3749
68.02 3221
68.04 3060
68.06 3427
68.08 3935
68.10 4209
68.12 4319
68.14 3887
68.16 2977
68.18 2378
68.20 1666
68.22 1344
68.24 1047
68.26 896
68.28 731
68.30 678
68.32 529
68.34 510
68.36 450
68.38 404
68.40 359
68.42 308
68.44 286
68.46 256
68.48 264
68.50 284
68.52 249
68.54 237
68.56 217
68.58 220
68.60 226
68.62 238
68.64 227
68.66 262
68.68 266
68.70 253
68.72 274
68.74 320
68.76 312
68.78 310
68.80 374
68.82 404
68.84 442
68.86 479
68.88 559
68.90 639
68.92 777
68.94 971
68.96 1253
68.98 1699
69.00 2188
69.02 2791
69.04 3361
69.06 3823
69.08 3593
69.10 3039
69.12 2387
69.14 1854
69.16 1622
69.18 1652
69.20 1720
69.22 1825
69.24 2008
69.26 2102
69.28 1905
69.30 1534
69.32 1210
69.34 899
69.36 773
69.38 579
69.40 484
69.42 416
69.44 370
69.46 252
69.48 287
69.50 251
69.52 217
69.54 195
69.56 176
69.58 163
69.60 147
69.62 149
69.64 147
69.66 130
69.68 105
69.70 128
69.72 132
69.74 117
69.76 80
69.78 110
69.80 82
69.82 118
69.84 86
69.86 85
69.88 109
69.90 85
69.92 101
69.94 87
69.96 73
69.98 87
70.00 83
70.02 77
70.04 90
70.06 86
70.08 80
70.10 80
70.12 52
70.14 59
70.16 69
70.18 79
70.20 84
70.22 69
70.24 70
70.26 72
70.28 67
70.30 64
70.32 81
70.34 68
70.36 75
70.38 60
70.40 57
70.42 59
70.44 63
70.46 63
70.48 89
70.50 54
70.52 79
70.54 73
70.56 63
70.58 67
70.60 64
70.62 76
70.64 57
70.66 65
70.68 51
70.70 50
70.72 63
70.74 63
70.76 77
70.78 66
70.80 51
70.82 64
70.84 60
70.86 55
70.88 53
70.90 71
70.92 60
70.94 37
70.96 42
70.98 55
71.00 72
71.02 51
71.04 52
71.06 45
71.08 48
71.10 57
71.12 58
71.14 56
71.16 58
71.18 55
71.20 50
71.22 54
71.24 50
71.26 59
71.28 50
71.30 56
71.32 61
71.34 46
71.36 58
71.38 72
71.40 84
71.42 59
71.44 53
71.46 53
71.48 46
71.50 58
71.52 52
71.54 48
71.56 55
71.58 62
71.60 45
71.62 51
71.64 50
71.66 55
71.68 57
71.70 47
71.72 52
71.74 61
71.76 63
71.78 71
71.80 41
71.82 58
71.84 64
71.86 59
71.88 51
71.90 63
71.92 69
71.94 57
71.96 57
71.98 66
72.00 58
72.02 60
72.04 50
72.06 60
72.08 62
72.10 65
72.12 62
72.14 71
72.16 82
72.18 65
72.20 63
72.22 78
72.24 81
72.26 73
72.28 91
72.30 95
72.32 90
72.34 110
72.36 120
72.38 149
72.40 148
72.42 181
72.44 191
72.46 270
72.48 351
72.50 496
72.52 792
72.54 1109
72.56 1047
72.58 828
72.60 600
72.62 375
72.64 342
72.66 241
72.68 310
72.70 331
72.72 400
72.74 509
72.76 672
72.78 553
72.80 383
72.82 269
72.84 210
72.86 139
72.88 120
72.90 111
72.92 114
72.94 94
72.96 86
72.98 71
73.00 81
73.02 66
73.04 74
73.06 57
73.08 63
73.10 56
73.12 53
73.14 70
73.16 61
73.18 46
73.20 55
73.22 41
73.24 56
73.26 60
73.28 65
73.30 54
73.32 61
73.34 54
73.36 46
73.38 55
73.40 48
73.42 52
73.44 35
73.46 50
73.48 48
73.50 46
73.52 58
73.54 34
73.56 50
73.58 48
73.60 46
73.62 45
73.64 48
73.66 56
73.68 37
73.70 49
73.72 41
73.74 42
73.76 36
73.78 41
73.80 43
73.82 40
73.84 42
73.86 42
73.88 41
73.90 37
73.92 40
73.94 37
73.96 44
73.98 46
74.00 37
74.02 48
74.04 37
74.06 46
74.08 44
74.10 53
74.12 43
74.14 49
74.16 35
74.18 42
74.20 39
74.22 45
74.24 44
74.26 50
74.28 55
74.30 50
74.32 43
74.34 32
74.36 46
74.38 55
74.40 43
74.42 36
74.44 30
74.46 36
74.48 46
74.50 52
74.52 51
74.54 42
74.56 43
74.58 47
74.60 43
74.62 43
74.64 52
74.66 44
74.68 42
74.70 40
74.72 30
74.74 49
74.76 33
74.78 40
74.80 37
74.82 47
74.84 44
74.86 37
74.88 46
74.90 42
74.92 47
74.94 45
74.96 47
74.98 40
75.00 42
75.02 48
75.04 43
75.06 44
75.08 54
75.10 39
75.12 31
75.14 48
75.16 37
75.18 46
75.20 51
75.22 33
75.24 39
75.26 34
75.28 51
75.30 47
75.32 41
75.34 53
75.36 42
75.38 42
75.40 41
75.42 48
75.44 47
75.46 58
75.48 41
75.50 58
75.52 35
75.54 46
75.56 55
75.58 49
75.60 40
75.62 44
75.64 37
75.66 43
75.68 40
75.70 40
75.72 46
75.74 46
75.76 42
75.78 45
75.80 52
75.82 52
75.84 51
75.86 41
75.88 44
75.90 43
75.92 41
75.94 42
75.96 47
75.98 42
76.00 50
76.02 40
76.04 57
76.06 38
76.08 40
76.10 47
76.12 44
76.14 51
76.16 51
76.18 54
76.20 44
76.22 38
76.24 42
76.26 39
76.28 54
76.30 63
76.32 56
76.34 65
76.36 62
76.38 67
76.40 70
76.42 66
76.44 79
76.46 76
76.48 66
76.50 81
76.52 70
76.54 73
76.56 81
76.58 99
76.60 115
76.62 91
76.64 115
76.66 123
76.68 136
76.70 130
76.72 138
76.74 173
76.76 209
76.78 240
76.80 298
76.82 353
76.84 456
76.86 604
76.88 820
76.90 1007
76.92 1310
76.94 1303
76.96 1128
76.98 922
77.00 792
77.02 621
77.04 514
77.06 460
77.08 458
77.10 561
77.12 632
77.14 647
77.16 708
77.18 691
77.20 590
77.22 470
77.24 366
77.26 261
77.28 210
77.30 190
77.32 143
77.34 164
77.36 134
77.38 110
77.40 136
77.42 90
77.44 88
77.46 72
77.48 89
77.50 62
77.52 61
77.54 63
77.56 56
77.58 50
77.60 51
77.62 39
77.64 68
77.66 56
77.68 54
77.70 58
77.72 59
77.74 48
77.76 55
77.78 49
77.80 53
77.82 58
77.84 44
77.86 44
77.88 49
77.90 47
77.92 47
77.94 35
77.96 51
77.98 41
78.00 46
78.02 60
78.04 51
78.06 37
78.08 47
78.10 36
78.12 34
78.14 39
78.16 42
78.18 46
78.20 37
78.22 41
78.24 58
78.26 46
78.28 36
78.30 54
78.32 38
78.34 41
78.36 39
78.38 46
78.40 33
78.42 37
78.44 46
78.46 38
78.48 33
78.50 31
78.52 47
78.54 42
78.56 44
78.58 38
78.60 34
78.62 48
78.64 51
78.66 31
78.68 41
78.70 41
78.72 39
78.74 36
78.76 38
78.78 42
78.80 42
78.82 42
78.84 44
78.86 29
78.88 25
78.90 41
78.92 34
78.94 34
78.96 43
78.98 35
79.00 49
79.02 33
79.04 50
79.06 35
79.08 38
79.10 33
79.12 36
79.14 51
79.16 40
79.18 41
79.20 39
79.22 39
79.24 40
79.26 36
79.28 34
79.30 36
79.32 34
79.34 34
79.36 36
79.38 43
79.40 33
79.42 40
79.44 29
79.46 36
79.48 45
79.50 36
79.52 32
79.54 35
79.56 37
79.58 44
79.60 36
79.62 30
79.64 36
79.66 44
79.68 50
79.70 53
79.72 45
79.74 45
79.76 34
79.78 40
79.80 46
79.82 31
79.84 46
79.86 46
79.88 39
79.90 43
79.92 36
79.94 29
79.96 42
79.98 45
80.00 53
