27 3
27.02 7
27.04 5
27.06 10
27.08 7
27.10 3
27.12 6
27.14 3
27.16 10
27.18 9
27.20 4
27.22 8
27.24 7
27.26 5
27.28 3
27.30 7
27.32 6
27.34 6
27.36 8
27.38 9
27.40 6
27.42 5
27.44 8
27.46 6
27.48 8
27.50 7
27.52 8
27.54 8
27.56 7
27.58 8
27.60 7
27.62 5
27.64 8
27.66 13
27.68 10
27.70 3
27.72 10
27.74 8
27.76 8
27.78 11
27.80 7
27.82 6
27.84 12
27.86 5
27.88 6
27.90 11
27.92 8
27.94 5
27.96 4
27.98 7
28.00 8
28.02 7
28.04 5
28.06 7
28.08 11
28.10 10
28.12 7
28.14 10
28.16 4
28.18 6
28.20 5
28.22 4
28.24 6
28.26 5
28.28 11
28.30 7
28.32 7
28.34 4
28.36 6
28.38 6
28.40 3
28.42 8
28.44 7
28.46 8
28.48 4
28.50 5
28.52 4
28.54 8
28.56 9
28.58 8
28.60 7
28.62 10
28.64 3
28.66 7
28.68 4
28.70 6
28.72 5
28.74 9
28.76 3
28.78 11
28.80 5
28.82 10
28.84 8
28.86 6
28.88 8
28.90 7
28.92 6
28.94 5
28.96 9
28.98 8
29.00 4
29.02 4
29.04 6
29.06 7
29.08 11
29.10 9
29.12 7
29.14 8
29.16 3
29.18 3
29.20 8
29.22 12
29.24 7
29.26 7
29.28 8
29.30 7
29.32 7
29.34 3
29.36 9
29.38 4
29.40 9
29.42 9
29.44 11
29.46 8
29.48 7
29.50 5
29.52 12
29.54 11
29.56 8
29.58 5
29.60 5
29.62 10
29.64 4
29.66 4
29.68 10
29.70 7
29.72 4
29.74 12
29.76 8
29.78 12
29.80 11
29.82 10
29.84 5
29.86 10
29.88 8
29.90 6
29.92 11
29.94 11
29.96 8
29.98 9
30.00 15
30.02 8
30.04 12
30.06 10
30.08 8
30.10 12
30.12 9
30.14 10
30.16 8
30.18 11
30.20 6
30.22 11
30.24 11
30.26 5
30.28 6
30.30 10
30.32 8
30.34 14
30.36 11
30.38 6
30.40 9
30.42 10
30.44 11
30.46 10
30.48 7
30.50 11
30.52 6
30.54 10
30.56 17
30.58 10
30.60 3
30.62 12
30.64 6
30.66 8
30.68 12
30.70 13
30.72 18
30.74 11
30.76 9
30.78 16
30.80 16
30.82 8
30.84 9
30.86 11
30.88 12
30.90 10
30.92 7
30.94 15
30.96 11
30.98 9
31.00 12
31.02 23
31.04 16
31.06 14
31.08 9
31.10 24
31.12 23
31.14 26
31.16 9
31.18 19
31.20 19
31.22 21
31.24 23
31.26 28
31.28 29
31.30 30
31.32 26
31.34 26
31.36 49
31.38 33
31.40 39
31.42 44
31.44 60
31.46 75
31.48 83
31.50 102
31.52 135
31.54 166
31.56 232
31.58 269
31.60 398
31.62 510
31.64 708
31.66 1008
31.68 1368
31.70 1875
31.72 2628
31.74 3297
31.76 3525
31.78 2641
31.80 2055
31.82 1923
31.84 1751
31.86 1225
31.88 669
31.90 423
31.92 314
31.94 203
31.96 150
31.98 115
32.00 93
32.02 82
32.04 69
32.06 56
32.08 55
32.10 35
32.12 32
32.14 34
32.16 21
32.18 28
32.20 30
32.22 24
32.24 26
32.26 14
32.28 19
32.30 19
32.32 21
32.34 16
32.36 15
32.38 11
32.40 14
32.42 13
32.44 14
32.46 8
32.48 10
32.50 14
32.52 9
32.54 16
32.56 16
32.58 17
32.60 17
32.62 13
32.64 13
32.66 17
32.68 17
32.70 10
32.72 11
32.74 11
32.76 12
32.78 14
32.80 12
32.82 13
32.84 11
32.86 12
32.88 12
32.90 8
32.92 15
32.94 9
32.96 15
32.98 14
33.00 14
33.02 13
33.04 16
33.06 11
33.08 15
33.10 8
33.12 14
33.14 12
33.16 15
33.18 15
33.20 10
33.22 13
33.24 13
33.26 7
33.28 9
33.30 13
33.32 10
33.34 7
33.36 9
33.38 10
33.40 10
33.42 13
33.44 13
33.46 7
33.48 8
33.50 10
33.52 12
33.54 12
33.56 13
33.58 12
33.60 15
33.62 16
33.64 15
33.66 11
33.68 17
33.70 9
33.72 10
33.74 18
33.76 14
33.78 14
33.80 20
33.82 12
33.84 15
33.86 16
33.88 18
33.90 15
33.92 24
33.94 24
33.96 22
33.98 19
34.00 23
34.02 38
34.04 25
34.06 31
34.08 37
34.10 42
34.12 32
34.14 63
34.16 81
34.18 76
34.20 114
34.22 157
34.24 199
34.26 279
34.28 348
34.30 482
34.32 712
34.34 1040
34.36 1461
34.38 2112
34.40 2549
34.42 2417
34.44 1704
34.46 1322
34.48 1330
34.50 1298
34.52 923
34.54 447
34.56 282
34.58 156
34.60 129
34.62 87
34.64 70
34.66 68
34.68 63
34.70 34
34.72 40
34.74 38
34.76 31
34.78 37
34.80 23
34.82 26
34.84 24
34.86 23
34.88 27
34.90 16
34.92 24
34.94 23
34.96 20
34.98 23
35.00 13
35.02 19
35.04 16
35.06 21
35.08 17
35.10 24
35.12 15
35.14 22
35.16 16
35.18 12
35.20 10
35.22 13
35.24 11
35.26 27
35.28 12
35.30 15
35.32 23
35.34 20
35.36 24
35.38 16
35.40 19
35.42 21
35.44 24
35.46 25
35.48 23
35.50 13
35.52 17
35.54 25
35.56 29
35.58 26
35.60 23
35.62 30
35.64 19
35.66 20
35.68 39
35.70 39
35.72 43
35.74 44
35.76 40
35.78 36
35.80 46
35.82 61
35.84 64
35.86 73
35.88 69
35.90 65
35.92 94
35.94 92
35.96 119
35.98 154
36.00 180
36.02 276
36.04 312
36.06 405
36.08 577
36.10 743
36.12 1075
36.14 1453
36.16 2127
36.18 2980
36.20 4269
36.22 5408
36.24 5982
36.26 4892
36.28 3649
36.30 3038
36.32 3143
36.34 2838
36.36 1945
36.38 1111
36.40 669
36.42 423
36.44 337
36.46 281
36.48 205
36.50 175
36.52 127
36.54 94
36.56 83
36.58 78
36.60 67
36.62 48
36.64 48
36.66 58
36.68 41
36.70 36
36.72 32
36.74 32
36.76 38
36.78 22
36.80 28
36.82 29
36.84 35
36.86 21
36.88 16
36.90 21
36.92 14
36.94 23
36.96 21
36.98 16
37.00 15
37.02 12
37.04 19
37.06 17
37.08 10
37.10 24
37.12 18
37.14 12
37.16 13
37.18 16
37.20 14
37.22 15
37.24 15
37.26 11
37.28 22
37.30 8
37.32 8
37.34 9
37.36 9
37.38 11
37.40 9
37.42 10
37.44 10
37.46 16
37.48 17
37.50 13
37.52 6
37.54 9
37.56 6
37.58 7
37.60 11
37.62 5
37.64 12
37.66 9
37.68 14
37.70 13
37.72 6
37.74 9
37.76 5
37.78 12
37.80 10
37.82 14
37.84 11
37.86 10
37.88 12
37.90 12
37.92 13
37.94 17
37.96 14
37.98 8
38.00 8
38.02 7
38.04 13
38.06 11
38.08 13
38.10 8
38.12 7
38.14 11
38.16 15
38.18 12
38.20 6
38.22 9
38.24 8
38.26 10
38.28 11
38.30 12
38.32 11
38.34 10
38.36 8
38.38 4
38.40 7
38.42 9
38.44 10
38.46 10
38.48 9
38.50 11
38.52 10
38.54 11
38.56 8
38.58 3
38.60 7
38.62 7
38.64 2
38.66 9
38.68 12
38.70 10
38.72 3
38.74 7
38.76 10
38.78 13
38.80 8
38.82 9
38.84 13
38.86 12
38.88 10
38.90 11
38.92 6
38.94 7
38.96 9
38.98 12
39.00 13
39.02 12
39.04 9
39.06 9
39.08 7
39.10 5
39.12 6
39.14 4
39.16 7
39.18 10
39.20 7
39.22 6
39.24 8
39.26 13
39.28 7
39.30 12
39.32 6
39.34 5
39.36 9
39.38 10
39.40 10
39.42 8
39.44 12
39.46 10
39.48 12
39.50 9
39.52 9
39.54 3
39.56 7
39.58 10
39.60 5
39.62 9
39.64 10
39.66 5
39.68 9
39.70 6
39.72 7
39.74 5
39.76 5
39.78 12
39.80 9
39.82 5
39.84 10
39.86 12
39.88 9
39.90 10
39.92 10
39.94 6
39.96 7
39.98 9
40.00 9
40.02 7
40.04 9
40.06 10
40.08 9
40.10 11
40.12 12
40.14 9
40.16 7
40.18 11
40.20 9
40.22 11
40.24 7
40.26 10
40.28 8
40.30 10
40.32 11
40.34 9
40.36 10
40.38 3
40.40 4
40.42 6
40.44 6
40.46 6
40.48 7
40.50 3
40.52 8
40.54 12
40.56 7
40.58 8
40.60 5
40.62 8
40.64 10
40.66 14
40.68 3
40.70 10
40.72 6
40.74 15
40.76 9
40.78 12
40.80 14
40.82 9
40.84 2
40.86 6
40.88 5
40.90 11
40.92 7
40.94 5
40.96 8
40.98 18
41.00 5
41.02 10
41.04 3
41.06 14
41.08 6
41.10 5
41.12 3
41.14 9
41.16 8
41.18 9
41.20 2
41.22 8
41.24 8
41.26 7
41.28 11
41.30 10
41.32 7
41.34 11
41.36 8
41.38 7
41.40 6
41.42 7
41.44 9
41.46 12
41.48 6
41.50 12
41.52 6
41.54 4
41.56 6
41.58 11
41.60 2
41.62 9
41.64 8
41.66 10
41.68 4
41.70 9
41.72 10
41.74 8
41.76 6
41.78 5
41.80 5
41.82 7
41.84 6
41.86 12
41.88 6
41.90 5
41.92 5
41.94 5
41.96 12
41.98 8
42.00 0
42.02 8
42.04 15
42.06 4
42.08 6
42.10 8
42.12 9
42.14 8
42.16 6
42.18 9
42.20 7
42.22 10
42.24 5
42.26 4
42.28 3
42.30 7
42.32 7
42.34 8
42.36 8
42.38 9
42.40 4
42.42 6
42.44 9
42.46 4
42.48 5
42.50 9
42.52 17
42.54 9
42.56 7
42.58 12
42.60 11
42.62 14
42.64 5
42.66 7
42.68 9
42.70 5
42.72 4
42.74 5
42.76 11
42.78 8
42.80 9
42.82 9
42.84 8
42.86 12
42.88 7
42.90 4
42.92 9
42.94 7
42.96 13
42.98 14
43.00 7
43.02 7
43.04 10
43.06 5
43.08 4
43.10 7
43.12 6
43.14 6
43.16 8
43.18 9
43.20 8
43.22 4
43.24 6
43.26 7
43.28 8
43.30 9
43.32 3
43.34 8
43.36 10
43.38 7
43.40 2
43.42 7
43.44 4
43.46 9
43.48 9
43.50 5
43.52 6
43.54 9
43.56 8
43.58 9
43.60 6
43.62 5
43.64 9
43.66 4
43.68 7
43.70 7
43.72 10
43.74 3
43.76 5
43.78 8
43.80 7
43.82 10
43.84 10
43.86 6
43.88 5
43.90 12
43.92 11
43.94 8
43.96 5
43.98 9
44.00 4
44.02 5
44.04 5
44.06 9
44.08 11
44.10 4
44.12 6
44.14 9
44.16 5
44.18 1
44.20 7
44.22 13
44.24 9
44.26 7
44.28 7
44.30 6
44.32 7
44.34 5
44.36 11
44.38 8
44.40 5
44.42 8
44.44 11
44.46 6
44.48 4
44.50 9
44.52 5
44.54 5
44.56 9
44.58 7
44.60 7
44.62 10
44.64 9
44.66 9
44.68 7
44.70 7
44.72 9
44.74 7
44.76 6
44.78 4
44.80 9
44.82 14
44.84 9
44.86 4
44.88 5
44.90 10
44.92 13
44.94 9
44.96 6
44.98 7
45.00 7
45.02 5
45.04 5
45.06 6
45.08 14
45.10 8
45.12 10
45.14 9
45.16 6
45.18 8
45.20 3
45.22 7
45.24 7
45.26 9
45.28 10
45.30 6
45.32 6
45.34 14
45.36 4
45.38 7
45.40 6
45.42 8
45.44 10
45.46 7
45.48 10
45.50 2
45.52 10
45.54 5
45.56 3
45.58 6
45.60 9
45.62 12
45.64 6
45.66 3
45.68 8
45.70 11
45.72 5
45.74 9
45.76 10
45.78 8
45.80 4
45.82 6
45.84 7
45.86 10
45.88 9
45.90 8
45.92 9
45.94 5
45.96 6
45.98 8
46.00 4
46.02 12
46.04 7
46.06 8
46.08 7
46.10 3
46.12 10
46.14 6
46.16 10
46.18 15
46.20 11
46.22 10
46.24 15
46.26 8
46.28 6
46.30 6
46.32 6
46.34 13
46.36 8
46.38 10
46.40 15
46.42 9
46.44 9
46.46 17
46.48 11
46.50 9
46.52 7
46.54 10
46.56 4
46.58 7
46.60 6
46.62 11
46.64 10
46.66 11
46.68 13
46.70 7
46.72 16
46.74 11
46.76 13
46.78 19
46.80 12
46.82 12
46.84 14
46.86 13
46.88 11
46.90 18
46.92 15
46.94 11
46.96 11
46.98 10
47.00 10
47.02 9
47.04 17
47.06 22
47.08 13
47.10 12
47.12 19
47.14 22
47.16 21
47.18 17
47.20 18
47.22 34
47.24 36
47.26 45
47.28 47
47.30 59
47.32 70
47.34 93
47.36 113
47.38 167
47.40 230
47.42 302
47.44 402
47.46 589
47.48 848
47.50 1100
47.52 1264
47.54 1131
47.56 808
47.58 531
47.60 527
47.62 627
47.64 730
47.66 624
47.68 372
47.70 257
47.72 150
47.74 95
47.76 67
47.78 73
47.80 52
47.82 32
47.84 42
47.86 28
47.88 28
47.90 29
47.92 24
47.94 25
47.96 17
47.98 12
48.00 23
48.02 10
48.04 17
48.06 20
48.08 14
48.10 6
48.12 13
48.14 14
48.16 8
48.18 10
48.20 14
48.22 9
48.24 10
48.26 13
48.28 16
48.30 16
48.32 7
48.34 13
48.36 8
48.38 14
48.40 5
48.42 9
48.44 9
48.46 12
48.48 10
48.50 16
48.52 9
48.54 7
48.56 11
48.58 13
48.60 5
48.62 2
48.64 5
48.66 1
48.68 6
48.70 9
48.72 11
48.74 10
48.76 12
48.78 14
48.80 5
48.82 11
48.84 6
48.86 11
48.88 7
48.90 10
48.92 4
48.94 9
48.96 13
48.98 9
49.00 7
49.02 6
49.04 4
49.06 5
49.08 8
49.10 4
49.12 4
49.14 8
49.16 3
49.18 12
49.20 10
49.22 7
49.24 5
49.26 8
49.28 4
49.30 8
49.32 11
49.34 6
49.36 5
49.38 7
49.40 6
49.42 8
49.44 7
49.46 8
49.48 9
49.50 3
49.52 3
49.54 8
49.56 7
49.58 14
49.60 6
49.62 7
49.64 9
49.66 6
49.68 8
49.70 8
49.72 9
49.74 7
49.76 4
49.78 11
49.80 9
49.82 10
49.84 6
49.86 8
49.88 10
49.90 4
49.92 12
49.94 11
49.96 10
49.98 13
50.00 3
50.02 9
50.04 12
50.06 9
50.08 6
50.10 6
50.12 5
50.14 7
50.16 7
50.18 3
50.20 6
50.22 13
50.24 5
50.26 6
50.28 8
50.30 9
50.32 11
50.34 6
50.36 6
50.38 10
50.40 8
50.42 8
50.44 13
50.46 11
50.48 7
50.50 10
50.52 10
50.54 4
50.56 5
50.58 4
50.60 3
50.62 8
50.64 9
50.66 8
50.68 10
50.70 10
50.72 7
50.74 9
50.76 8
50.78 9
50.80 11
50.82 12
50.84 8
50.86 13
50.88 11
50.90 8
50.92 5
50.94 6
50.96 14
50.98 8
51.00 4
51.02 9
51.04 12
51.06 3
51.08 9
51.10 3
51.12 9
51.14 11
51.16 10
51.18 8
51.20 8
51.22 6
51.24 6
51.26 8
51.28 9
51.30 3
51.32 5
51.34 14
51.36 8
51.38 7
51.40 5
51.42 7
51.44 9
51.46 6
51.48 8
51.50 5
51.52 10
51.54 11
51.56 11
51.58 6
51.60 8
51.62 8
51.64 13
51.66 4
51.68 11
51.70 13
51.72 9
51.74 6
51.76 11
51.78 7
51.80 2
51.82 6
51.84 3
51.86 3
51.88 4
51.90 11
51.92 12
51.94 4
51.96 7
51.98 6
52.00 9
52.02 8
52.04 3
52.06 5
52.08 8
52.10 11
52.12 11
52.14 2
52.16 5
52.18 5
52.20 4
52.22 10
52.24 13
52.26 7
52.28 6
52.30 7
52.32 5
52.34 4
52.36 8
52.38 5
52.40 11
52.42 6
52.44 6
52.46 7
52.48 10
52.50 7
52.52 8
52.54 9
52.56 4
52.58 14
52.60 6
52.62 3
52.64 5
52.66 14
52.68 8
52.70 8
52.72 8
52.74 15
52.76 11
52.78 8
52.80 9
52.82 13
52.84 5
52.86 10
52.88 4
52.90 6
52.92 9
52.94 7
52.96 8
52.98 9
53.00 5
53.02 8
53.04 10
53.06 7
53.08 4
53.10 9
53.12 10
53.14 13
53.16 10
53.18 7
53.20 10
53.22 6
53.24 8
53.26 13
53.28 10
53.30 8
53.32 8
53.34 4
53.36 7
53.38 9
53.40 9
53.42 9
53.44 10
53.46 7
53.48 10
53.50 7
53.52 10
53.54 12
53.56 8
53.58 9
53.60 5
53.62 6
53.64 9
53.66 7
53.68 9
53.70 9
53.72 11
53.74 6
53.76 4
53.78 10
53.80 9
53.82 11
53.84 12
53.86 11
53.88 13
53.90 16
53.92 11
53.94 9
53.96 14
53.98 9
54.00 5
54.02 7
54.04 13
54.06 15
54.08 10
54.10 8
54.12 8
54.14 10
54.16 8
54.18 11
54.20 7
54.22 9
54.24 9
54.26 8
54.28 8
54.30 14
54.32 5
54.34 11
54.36 7
54.38 9
54.40 9
54.42 4
54.44 10
54.46 11
54.48 7
54.50 4
54.52 6
54.54 12
54.56 7
54.58 14
54.60 13
54.62 8
54.64 7
54.66 9
54.68 6
54.70 13
54.72 11
54.74 4
54.76 14
54.78 9
54.80 18
54.82 9
54.84 7
54.86 9
54.88 16
54.90 12
54.92 8
54.94 12
54.96 11
54.98 7
55.00 6
55.02 10
55.04 6
55.06 10
55.08 6
55.10 7
55.12 12
55.14 17
55.16 11
55.18 5
55.20 11
55.22 9
55.24 11
55.26 9
55.28 13
55.30 15
55.32 18
55.34 14
55.36 17
55.38 11
55.40 11
55.42 12
55.44 9
55.46 15
55.48 23
55.50 12
55.52 12
55.54 11
55.56 16
55.58 10
55.60 10
55.62 12
55.64 12
55.66 11
55.68 17
55.70 14
55.72 14
55.74 20
55.76 15
55.78 14
55.80 12
55.82 14
55.84 15
55.86 10
55.88 17
55.90 10
55.92 11
55.94 14
55.96 28
55.98 21
56.00 22
56.02 15
56.04 23
56.06 10
56.08 28
56.10 20
56.12 30
56.14 23
56.16 33
56.18 26
56.20 34
56.22 39
56.24 40
56.26 34
56.28 49
56.30 64
56.32 70
56.34 86
56.36 76
56.38 93
56.40 112
56.42 165
56.44 230
56.46 306
56.48 404
56.50 671
56.52 989
56.54 1370
56.56 1797
56.58 1902
56.60 1571
56.62 1052
56.64 716
56.66 680
56.68 721
56.70 817
56.72 1017
56.74 940
56.76 677
56.78 443
56.80 263
56.82 186
56.84 114
56.86 89
56.88 83
56.90 63
56.92 47
56.94 50
56.96 35
56.98 36
57.00 26
57.02 35
57.04 23
57.06 30
57.08 30
57.10 33
57.12 19
57.14 15
57.16 27
57.18 15
57.20 19
57.22 18
57.24 18
57.26 16
57.28 24
57.30 14
57.32 12
57.34 19
57.36 23
57.38 13
57.40 13
57.42 15
57.44 17
57.46 24
57.48 15
57.50 15
57.52 8
57.54 9
57.56 11
57.58 16
57.60 4
57.62 11
57.64 16
57.66 8
57.68 11
57.70 13
57.72 8
57.74 15
57.76 13
57.78 8
57.80 6
57.82 10
57.84 11
57.86 8
57.88 7
57.90 9
57.92 7
57.94 15
57.96 9
57.98 14
58.00 15
58.02 14
58.04 11
58.06 9
58.08 14
58.10 18
58.12 11
58.14 10
58.16 13
58.18 17
58.20 7
58.22 14
58.24 14
58.26 3
58.28 7
58.30 13
58.32 12
58.34 7
58.36 15
58.38 15
58.40 10
58.42 8
58.44 20
58.46 8
58.48 11
58.50 10
58.52 10
58.54 11
58.56 11
58.58 7
58.60 14
58.62 11
58.64 7
58.66 11
58.68 11
58.70 12
58.72 10
58.74 10
58.76 11
58.78 16
58.80 10
58.82 14
58.84 10
58.86 10
58.88 14
58.90 8
58.92 12
58.94 11
58.96 3
58.98 9
59.00 12
59.02 7
59.04 5
59.06 13
59.08 16
59.10 7
59.12 13
59.14 15
59.16 10
59.18 10
59.20 12
59.22 14
59.24 6
59.26 11
59.28 9
59.30 7
59.32 13
59.34 10
59.36 7
59.38 7
59.40 6
59.42 5
59.44 12
59.46 6
59.48 7
59.50 8
59.52 16
59.54 13
59.56 10
59.58 10
59.60 13
59.62 18
59.64 13
59.66 7
59.68 19
59.70 13
59.72 15
59.74 13
59.76 12
59.78 9
59.80 13
59.82 10
59.84 13
59.86 13
59.88 7
59.90 12
59.92 9
59.94 11
59.96 11
59.98 18
60.00 14
60.02 12
60.04 7
60.06 10
60.08 8
60.10 9
60.12 12
60.14 14
60.16 11
60.18 9
60.20 8
60.22 8
60.24 5
60.26 9
60.28 10
60.30 10
60.32 9
60.34 12
60.36 8
60.38 9
60.40 7
60.42 13
60.44 14
60.46 10
60.48 14
60.50 14
60.52 7
60.54 11
60.56 11
60.58 8
60.60 12
60.62 21
60.64 16
60.66 17
60.68 7
60.70 10
60.72 16
60.74 16
60.76 8
60.78 6
60.80 6
60.82 11
60.84 13
60.86 11
60.88 11
60.90 8
60.92 11
60.94 9
60.96 12
60.98 9
61.00 14
61.02 14
61.04 18
61.06 13
61.08 16
61.10 7
61.12 14
61.14 9
61.16 12
61.18 8
61.20 10
61.22 9
61.24 12
61.26 8
61.28 11
61.30 12
61.32 15
61.34 13
61.36 14
61.38 10
61.40 9
61.42 10
61.44 20
61.46 15
61.48 16
61.50 15
61.52 7
61.54 17
61.56 12
61.58 13
61.60 17
61.62 15
61.64 15
61.66 17
61.68 13
61.70 12
61.72 10
61.74 11
61.76 15
61.78 17
61.80 12
61.82 15
61.84 15
61.86 12
61.88 24
61.90 17
61.92 14
61.94 13
61.96 15
61.98 12
62.00 13
62.02 10
62.04 20
62.06 14
62.08 13
62.10 12
62.12 16
62.14 18
62.16 17
62.18 13
62.20 12
62.22 19
62.24 23
62.26 18
62.28 20
62.30 26
62.32 19
62.34 21
62.36 23
62.38 25
62.40 29
62.42 38
62.44 24
62.46 31
62.48 35
62.50 35
62.52 45
62.54 69
62.56 55
62.58 51
62.60 73
62.62 90
62.64 98
62.66 99
62.68 159
62.70 192
62.72 253
62.74 382
62.76 520
62.78 784
62.80 1133
62.82 1578
62.84 1642
62.86 1436
62.88 905
62.90 660
62.92 514
62.94 472
62.96 528
62.98 696
63.00 849
63.02 881
63.04 716
63.06 442
63.08 259
63.10 170
63.12 119
63.14 108
63.16 79
63.18 62
63.20 48
63.22 36
63.24 38
63.26 28
63.28 26
63.30 33
63.32 34
63.34 35
63.36 25
63.38 20
63.40 21
63.42 19
63.44 27
63.46 26
63.48 15
63.50 16
63.52 26
63.54 17
63.56 13
63.58 22
63.60 18
63.62 15
63.64 19
63.66 16
63.68 9
63.70 16
63.72 10
63.74 10
63.76 15
63.78 7
63.80 17
63.82 12
63.84 16
63.86 11
63.88 12
63.90 21
63.92 20
63.94 5
63.96 11
63.98 13
64.00 15
64.02 8
64.04 12
64.06 15
64.08 11
64.10 11
64.12 10
64.14 13
64.16 19
64.18 11
64.20 15
64.22 10
64.24 15
64.26 15
64.28 14
64.30 16
64.32 11
64.34 10
64.36 14
64.38 11
64.40 7
64.42 6
64.44 17
64.46 15
64.48 11
64.50 10
64.52 9
64.54 14
64.56 12
64.58 16
64.60 16
64.62 10
64.64 17
64.66 10
64.68 11
64.70 15
64.72 11
64.74 10
64.76 15
64.78 13
64.80 13
64.82 9
64.84 15
64.86 14
64.88 16
64.90 11
64.92 12
64.94 17
64.96 11
64.98 16
65.00 10
65.02 9
65.04 7
65.06 9
65.08 11
65.10 9
65.12 7
65.14 13
65.16 15
65.18 11
65.20 9
65.22 17
65.24 14
65.26 8
65.28 12
65.30 12
65.32 10
65.34 13
65.36 17
65.38 8
65.40 13
65.42 12
65.44 13
65.46 5
65.48 16
65.50 12
65.52 3
65.54 14
65.56 10
65.58 12
65.60 12
65.62 11
65.64 14
65.66 16
65.68 12
65.70 8
65.72 11
65.74 8
65.76 16
65.78 9
65.80 12
65.82 13
65.84 10
65.86 16
65.88 14
65.90 14
65.92 11
65.94 15
65.96 12
65.98 20
66.00 12
66.02 21
66.04 15
66.06 15
66.08 21
66.10 13
66.12 24
66.14 25
66.16 30
66.18 38
66.20 34
66.22 53
66.24 56
66.26 54
66.28 99
66.30 147
66.32 214
66.34 266
66.36 282
66.38 216
66.40 152
66.42 100
66.44 75
66.46 77
66.48 66
66.50 101
66.52 131
66.54 137
66.56 116
66.58 92
66.60 60
66.62 43
66.64 46
66.66 39
66.68 24
66.70 20
66.72 24
66.74 20
66.76 11
66.78 22
66.80 11
66.82 19
66.84 25
66.86 21
66.88 21
66.90 11
66.92 17
66.94 19
66.96 11
66.98 16
67.00 13
67.02 13
67.04 18
67.06 13
67.08 13
67.10 19
67.12 17
67.14 17
67.16 18
67.18 16
67.20 13
67.22 16
67.24 25
67.26 20
67.28 23
67.30 17
67.32 16
67.34 20
67.36 16
67.38 19
67.40 20
67.42 23
67.44 12
67.46 27
67.48 24
67.50 24
67.52 28
67.54 38
67.56 33
67.58 39
67.60 43
67.62 40
67.64 44
67.66 40
67.68 70
67.70 64
67.72 69
67.74 84
67.76 116
67.78 170
67.80 190
67.82 306
67.84 369
67.86 605
67.88 807
67.90 1144
67.92 1371
67.94 1393
67.96 1040
67.98 648
68.00 458
68.02 385
68.04 343
68.06 366
68.08 533
68.10 635
68.12 672
68.14 619
68.16 431
68.18 284
68.20 191
68.22 134
68.24 103
68.26 78
68.28 57
68.30 45
68.32 41
68.34 50
68.36 45
68.38 29
68.40 24
68.42 32
68.44 15
68.46 23
68.48 19
68.50 33
68.52 22
68.54 23
68.56 18
68.58 23
68.60 28
68.62 27
68.64 18
68.66 31
68.68 28
68.70 27
68.72 26
68.74 31
68.76 33
68.78 32
68.80 53
68.82 47
68.84 41
68.86 57
68.88 54
68.90 75
68.92 91
68.94 120
68.96 157
68.98 201
69.00 291
69.02 406
69.04 593
69.06 675
69.08 669
69.10 439
69.12 304
69.14 217
69.16 173
69.18 169
69.20 211
69.22 252
69.24 323
69.26 322
69.28 342
69.30 248
69.32 136
69.34 94
69.36 77
69.38 55
69.40 47
69.42 36
69.44 25
69.46 24
69.48 28
69.50 19
69.52 25
69.54 17
69.56 20
69.58 17
69.60 29
69.62 17
69.64 21
69.66 22
69.68 16
69.70 12
69.72 13
69.74 10
69.76 13
69.78 15
69.80 8
69.82 22
69.84 13
69.86 14
69.88 15
69.90 10
69.92 9
69.94 8
69.96 6
69.98 13
70.00 7
70.02 9
70.04 11
70.06 16
70.08 12
70.10 5
70.12 11
70.14 10
70.16 18
70.18 5
70.20 9
70.22 7
70.24 8
70.26 11
70.28 8
70.30 4
70.32 12
70.34 5
70.36 8
70.38 3
70.40 11
70.42 4
70.44 6
70.46 16
70.48 13
70.50 8
70.52 6
70.54 9
70.56 10
70.58 6
70.60 9
70.62 8
70.64 7
70.66 10
70.68 16
70.70 11
70.72 7
70.74 9
70.76 10
70.78 7
70.80 16
70.82 11
70.84 11
70.86 8
70.88 8
70.90 5
70.92 8
70.94 13
70.96 10
70.98 9
71.00 6
71.02 9
71.04 10
71.06 14
71.08 6
71.10 10
71.12 14
71.14 6
71.16 8
71.18 7
71.20 8
71.22 8
71.24 8
71.26 7
71.28 2
71.30 10
71.32 14
71.34 10
71.36 10
71.38 9
71.40 8
71.42 9
71.44 4
71.46 13
71.48 9
71.50 9
71.52 4
71.54 8
71.56 7
71.58 13
71.60 9
71.62 12
71.64 8
71.66 13
71.68 10
71.70 18
71.72 15
71.74 11
71.76 9
71.78 11
71.80 7
71.82 8
71.84 10
71.86 5
71.88 10
71.90 5
71.92 8
71.94 12
71.96 10
71.98 14
72.00 11
72.02 6
72.04 7
72.06 7
72.08 12
72.10 11
72.12 10
72.14 5
72.16 10
72.18 9
72.20 6
72.22 11
72.24 13
72.26 13
72.28 12
72.30 12
72.32 11
72.34 18
72.36 11
72.38 8
72.40 18
72.42 28
72.44 29
72.46 36
72.48 46
72.50 83
72.52 96
72.54 141
72.56 122
72.58 98
72.60 56
72.62 52
72.64 30
72.66 31
72.68 35
72.70 40
72.72 46
72.74 56
72.76 63
72.78 46
72.80 31
72.82 32
72.84 12
72.86 20
72.88 17
72.90 15
72.92 15
72.94 10
72.96 15
72.98 10
73.00 13
73.02 10
73.04 9
73.06 10
73.08 4
73.10 8
73.12 4
73.14 6
73.16 6
73.18 10
73.20 7
73.22 11
73.24 5
73.26 6
73.28 14
73.30 19
73.32 10
73.34 7
73.36 8
73.38 7
73.40 8
73.42 10
73.44 5
73.46 8
73.48 8
73.50 6
73.52 14
73.54 3
73.56 14
73.58 3
73.60 10
73.62 10
73.64 13
73.66 1
73.68 11
73.70 10
73.72 2
73.74 5
73.76 5
73.78 7
73.80 3
73.82 7
73.84 7
73.86 11
73.88 9
73.90 6
73.92 11
73.94 5
73.96 10
73.98 5
74.00 9
74.02 11
74.04 3
74.06 8
74.08 11
74.10 5
74.12 6
74.14 11
74.16 6
74.18 5
74.20 5
74.22 2
74.24 6
74.26 4
74.28 5
74.30 11
74.32 7
74.34 13
74.36 8
74.38 8
74.40 10
74.42 13
74.44 3
74.46 6
74.48 6
74.50 8
74.52 6
74.54 4
74.56 5
74.58 10
74.60 8
74.62 7
74.64 9
74.66 6
74.68 7
74.70 5
74.72 7
74.74 13
74.76 11
74.78 11
74.80 6
74.82 10
74.84 5
74.86 10
74.88 5
74.90 5
74.92 11
74.94 14
74.96 8
74.98 5
75.00 6
75.02 5
75.04 8
75.06 10
75.08 4
75.10 4
75.12 10
75.14 7
75.16 4
75.18 8
75.20 5
75.22 9
75.24 9
75.26 10
75.28 9
75.30 6
75.32 7
75.34 8
75.36 13
75.38 4
75.40 10
75.42 11
75.44 9
75.46 6
75.48 3
75.50 14
75.52 10
75.54 13
75.56 7
75.58 9
75.60 8
75.62 8
75.64 6
75.66 6
75.68 12
75.70 9
75.72 4
75.74 8
75.76 4
75.78 6
75.80 8
75.82 9
75.84 6
75.86 7
75.88 7
75.90 11
75.92 9
75.94 6
75.96 8
75.98 8
76.00 9
76.02 7
76.04 10
76.06 5
76.08 6
76.10 7
76.12 5
76.14 8
76.16 8
76.18 15
76.20 8
76.22 15
76.24 10
76.26 6
76.28 9
76.30 6
76.32 7
76.34 11
76.36 14
76.38 16
76.40 6
76.42 9
76.44 12
76.46 11
76.48 7
76.50 14
76.52 7
76.54 13
76.56 8
76.58 8
76.60 18
76.62 7
76.64 12
76.66 8
76.68 17
76.70 20
76.72 11
76.74 20
76.76 24
76.78 34
76.80 34
76.82 44
76.84 60
76.86 69
76.88 101
76.90 171
76.92 198
76.94 208
76.96 194
76.98 127
77.00 87
77.02 59
77.04 66
77.06 67
77.08 72
77.10 53
77.12 68
77.14 104
77.16 99
77.18 98
77.20 82
77.22 53
77.24 36
77.26 30
77.28 26
77.30 22
77.32 9
77.34 18
77.36 16
77.38 17
77.40 12
77.42 11
77.44 15
77.46 9
77.48 10
77.50 13
77.52 9
77.54 8
77.56 12
77.58 11
77.60 8
77.62 9
77.64 9
77.66 7
77.68 5
77.70 7
77.72 3
77.74 7
77.76 8
77.78 8
77.80 8
77.82 8
77.84 5
77.86 6
77.88 5
77.90 10
77.92 7
77.94 8
77.96 8
77.98 8
78.00 5
78.02 9
78.04 13
78.06 10
78.08 6
78.10 8
78.12 6
78.14 6
78.16 4
78.18 6
78.20 11
78.22 12
78.24 5
78.26 8
78.28 11
78.30 5
78.32 9
78.34 8
78.36 3
78.38 4
78.40 7
78.42 14
78.44 9
78.46 9
78.48 9
78.50 6
78.52 3
78.54 7
78.56 5
78.58 9
78.60 5
78.62 8
78.64 4
78.66 1
78.68 5
78.70 5
78.72 10
78.74 5
78.76 3
78.78 4
78.80 8
78.82 2
78.84 8
78.86 11
78.88 6
78.90 5
78.92 6
78.94 11
78.96 9
78.98 11
79.00 6
79.02 7
79.04 5
79.06 9
79.08 3
79.10 8
79.12 3
79.14 5
79.16 5
79.18 12
79.20 5
79.22 10
79.24 9
79.26 4
79.28 7
79.30 7
79.32 5
79.34 2
79.36 10
79.38 6
79.40 4
79.42 9
79.44 8
79.46 3
79.48 7
79.50 7
79.52 5
79.54 7
79.56 2
79.58 6
79.60 6
79.62 9
79.64 15
79.66 4
79.68 7
79.70 7
79.72 8
79.74 5
79.76 5
79.78 6
79.80 5
79.82 10
79.84 6
79.86 9
79.88 4
79.90 4
79.92 8
79.94 4
79.96 10
79.98 5
80.00 6
