27 23
27.02 29
27.04 31
27.06 35
27.08 31
27.10 32
27.12 27
27.14 33
27.16 32
27.18 28
27.20 27
27.22 34
27.24 30
27.26 40
27.28 25
27.30 29
27.32 38
27.34 25
27.36 38
27.38 40
27.40 44
27.42 44
27.44 46
27.46 36
27.48 31
27.50 30
27.52 33
27.54 40
27.56 27
27.58 34
27.60 33
27.62 39
27.64 38
27.66 33
27.68 32
27.70 37
27.72 24
27.74 39
27.76 31
27.78 31
27.80 44
27.82 38
27.84 28
27.86 35
27.88 32
27.90 29
27.92 40
27.94 41
27.96 39
27.98 36
28.00 30
28.02 36
28.04 32
28.06 30
28.08 43
28.10 47
28.12 31
28.14 42
28.16 26
28.18 38
28.20 30
28.22 34
28.24 27
28.26 32
28.28 31
28.30 42
28.32 33
28.34 45
28.36 38
28.38 23
28.40 46
28.42 42
28.44 37
28.46 45
28.48 43
28.50 48
28.52 39
28.54 30
28.56 51
28.58 36
28.60 31
28.62 46
28.64 43
28.66 34
28.68 41
28.70 37
28.72 33
28.74 33
28.76 32
28.78 34
28.80 42
28.82 38
28.84 29
28.86 40
28.88 51
28.90 43
28.92 23
28.94 35
28.96 33
28.98 34
29.00 36
29.02 36
29.04 42
29.06 44
29.08 36
29.10 35
29.12 40
29.14 51
29.16 33
29.18 39
29.20 49
29.22 25
29.24 43
29.26 49
29.28 33
29.30 38
29.32 44
29.34 44
29.36 44
29.38 33
29.40 42
29.42 45
29.44 30
29.46 34
29.48 44
29.50 29
29.52 41
29.54 44
29.56 42
29.58 37
29.60 48
29.62 40
29.64 36
29.66 37
29.68 47
29.70 44
29.72 41
29.74 46
29.76 43
29.78 35
29.80 36
29.82 36
29.84 42
29.86 49
29.88 53
29.90 51
29.92 34
29.94 45
29.96 39
29.98 46
30.00 40
30.02 47
30.04 54
30.06 56
30.08 43
30.10 38
30.12 39
30.14 32
30.16 54
30.18 46
30.20 45
30.22 40
30.24 46
30.26 52
30.28 54
30.30 51
30.32 46
30.34 45
30.36 41
30.38 55
30.40 50
30.42 33
30.44 47
30.46 39
30.48 37
30.50 44
30.52 48
30.54 57
30.56 52
30.58 45
30.60 43
30.62 57
30.64 53
30.66 58
30.68 51
30.70 64
30.72 55
30.74 53
30.76 56
30.78 58
30.80 61
30.82 65
30.84 69
30.86 59
30.88 76
30.90 79
30.92 75
30.94 57
30.96 65
30.98 78
31.00 60
31.02 96
31.04 103
31.06 93
31.08 89
31.10 107
31.12 91
31.14 101
31.16 95
31.18 123
31.20 120
31.22 136
31.24 136
31.26 137
31.28 170
31.30 182
31.32 173
31.34 180
31.36 211
31.38 257
31.40 225
31.42 312
31.44 362
31.46 398
31.48 544
31.50 646
31.52 822
31.54 1033
31.56 1331
31.58 1693
31.60 2295
31.62 3125
31.64 4084
31.66 5744
31.68 8178
31.70 11228
31.72 15073
31.74 18585
31.76 19307
31.78 16127
31.80 12877
31.82 11488
31.84 10131
31.86 7567
31.88 4701
31.90 2733
31.92 1789
31.94 1152
31.96 959
31.98 707
32.00 569
32.02 466
32.04 370
32.06 343
32.08 292
32.10 247
32.12 207
32.14 174
32.16 163
32.18 180
32.20 155
32.22 142
32.24 137
32.26 119
32.28 126
32.30 109
32.32 106
32.34 90
32.36 95
32.38 86
32.40 93
32.42 78
32.44 84
32.46 89
32.48 79
32.50 77
32.52 79
32.54 63
32.56 66
32.58 75
32.60 57
32.62 56
32.64 67
32.66 61
32.68 73
32.70 69
32.72 53
32.74 62
32.76 70
32.78 66
32.80 55
32.82 60
32.84 65
32.86 61
32.88 49
32.90 65
32.92 43
32.94 73
32.96 60
32.98 57
33.00 52
33.02 65
33.04 62
33.06 63
33.08 59
33.10 57
33.12 50
33.14 69
33.16 71
33.18 60
33.20 69
33.22 58
33.24 62
33.26 59
33.28 57
33.30 67
33.32 43
33.34 62
33.36 57
33.38 59
33.40 58
33.42 49
33.44 72
33.46 59
33.48 71
33.50 68
33.52 67
33.54 64
33.56 70
33.58 67
33.60 81
33.62 62
33.64 74
33.66 69
33.68 96
33.70 89
33.72 70
33.74 79
33.76 83
33.78 78
33.80 87
33.82 94
33.84 96
33.86 106
33.88 118
33.90 102
33.92 118
33.94 91
33.96 141
33.98 135
34.00 145
34.02 150
34.04 169
34.06 195
34.08 198
34.10 256
34.12 287
34.14 357
34.16 449
34.18 558
34.20 756
34.22 969
34.24 1182
34.26 1510
34.28 2087
34.30 3046
34.32 4099
34.34 5959
34.36 8715
34.38 11734
34.40 14064
34.42 13269
34.44 10465
34.46 8151
34.48 7670
34.50 7319
34.52 5468
34.54 3185
34.56 1786
34.58 1117
34.60 860
34.62 612
34.64 430
34.66 354
34.68 341
34.70 272
34.72 197
34.74 195
34.76 198
34.78 157
34.80 142
34.82 155
34.84 125
34.86 133
34.88 136
34.90 120
34.92 112
34.94 99
34.96 105
34.98 96
35.00 105
35.02 90
35.04 103
35.06 91
35.08 75
35.10 100
35.12 97
35.14 76
35.16 99
35.18 92
35.20 81
35.22 87
35.24 96
35.26 86
35.28 92
35.30 100
35.32 112
35.34 99
35.36 109
35.38 106
35.40 101
35.42 113
35.44 126
35.46 132
35.48 127
35.50 133
35.52 144
35.54 135
35.56 122
35.58 163
35.60 130
35.62 167
35.64 160
35.66 183
35.68 185
35.70 205
35.72 233
35.74 221
35.76 245
35.78 282
35.80 268
35.82 285
35.84 322
35.86 378
35.88 403
35.90 479
35.92 569
35.94 725
35.96 783
35.98 989
36.00 1267
36.02 1585
36.04 2071
36.06 2681
36.08 3440
36.10 4625
36.12 6232
36.14 8549
36.16 11961
36.18 17390
36.20 23893
36.22 29975
36.24 31800
36.26 28421
36.28 21750
36.30 18497
36.32 18075
36.34 16206
36.36 12069
36.38 7417
36.40 4342
36.42 2836
36.44 2098
36.46 1446
36.48 1184
36.50 901
36.52 776
36.54 625
36.56 522
36.58 449
36.60 379
36.62 343
36.64 302
36.66 314
36.68 230
36.70 229
36.72 210
36.74 207
36.76 181
36.78 188
36.80 174
36.82 148
36.84 176
36.86 125
36.88 137
36.90 112
36.92 151
36.94 115
36.96 103
36.98 113
37.00 100
37.02 101
37.04 81
37.06 94
37.08 79
37.10 77
37.12 85
37.14 79
37.16 92
37.18 77
37.20 90
37.22 84
37.24 68
37.26 88
37.28 63
37.30 57
37.32 50
37.34 60
37.36 71
37.38 81
37.40 49
37.42 60
37.44 55
37.46 57
37.48 62
37.50 58
37.52 53
37.54 52
37.56 59
37.58 62
37.60 60
37.62 53
37.64 54
37.66 54
37.68 47
37.70 48
37.72 43
37.74 61
37.76 58
37.78 68
37.80 54
37.82 58
37.84 48
37.86 59
37.88 51
37.90 53
37.92 55
37.94 44
37.96 50
37.98 65
38.00 47
38.02 52
38.04 40
38.06 57
38.08 60
38.10 53
38.12 52
38.14 49
38.16 53
38.18 42
38.20 46
38.22 57
38.24 38
38.26 45
38.28 57
38.30 47
38.32 44
38.34 45
38.36 41
38.38 61
38.40 42
38.42 44
38.44 46
38.46 38
38.48 40
38.50 51
38.52 46
38.54 37
38.56 35
38.58 63
38.60 37
38.62 52
38.64 49
38.66 45
38.68 41
38.70 47
38.72 54
38.74 37
38.76 34
38.78 40
38.80 51
38.82 57
38.84 40
38.86 37
38.88 34
38.90 39
38.92 51
38.94 55
38.96 41
38.98 47
39.00 40
39.02 57
39.04 50
39.06 48
39.08 51
39.10 51
39.12 38
39.14 51
39.16 48
39.18 38
39.20 35
39.22 36
39.24 43
39.26 45
39.28 37
39.30 42
39.32 38
39.34 42
39.36 50
39.38 42
39.40 36
39.42 39
39.44 35
39.46 42
39.48 37
39.50 35
39.52 41
39.54 30
39.56 33
39.58 41
39.60 42
39.62 36
39.64 36
39.66 37
39.68 30
39.70 41
39.72 33
39.74 39
39.76 32
39.78 35
39.80 42
39.82 42
39.84 39
39.86 28
39.88 30
39.90 35
39.92 32
39.94 36
39.96 33
39.98 32
40.00 29
40.02 41
40.04 32
40.06 44
40.08 30
40.10 44
40.12 43
40.14 45
40.16 43
40.18 45
40.20 35
40.22 39
40.24 29
40.26 38
40.28 36
40.30 47
40.32 30
40.34 39
40.36 39
40.38 34
40.40 34
40.42 46
40.44 41
40.46 40
40.48 36
40.50 47
40.52 36
40.54 43
40.56 38
40.58 30
40.60 41
40.62 33
40.64 42
40.66 36
40.68 31
40.70 44
40.72 39
40.74 47
40.76 27
40.78 35
40.80 47
40.82 41
40.84 29
40.86 40
40.88 50
40.90 42
40.92 56
40.94 36
40.96 36
40.98 36
41.00 36
41.02 33
41.04 38
41.06 32
41.08 39
41.10 36
41.12 50
41.14 36
41.16 39
41.18 33
41.20 36
41.22 48
41.24 50
41.26 37
41.28 45
41.30 38
41.32 29
41.34 33
41.36 23
41.38 46
41.40 35
41.42 49
41.44 42
41.46 30
41.48 46
41.50 36
41.52 34
41.54 32
41.56 44
41.58 30
41.60 33
41.62 33
41.64 45
41.66 31
41.68 36
41.70 28
41.72 39
41.74 28
41.76 24
41.78 30
41.80 32
41.82 33
41.84 26
41.86 36
41.88 34
41.90 52
41.92 37
41.94 36
41.96 33
41.98 36
42.00 44
42.02 29
42.04 38
42.06 38
42.08 34
42.10 36
42.12 46
42.14 29
42.16 32
42.18 51
42.20 34
42.22 26
42.24 34
42.26 33
42.28 47
42.30 26
42.32 36
42.34 38
42.36 35
42.38 41
42.40 38
42.42 37
42.44 43
42.46 37
42.48 35
42.50 48
42.52 31
42.54 42
42.56 29
42.58 30
42.60 26
42.62 39
42.64 30
42.66 36
42.68 45
42.70 46
42.72 39
42.74 34
42.76 36
42.78 41
42.80 31
42.82 43
42.84 37
42.86 41
42.88 34
42.90 40
42.92 29
42.94 36
42.96 49
42.98 39
43.00 30
43.02 36
43.04 40
43.06 34
43.08 29
43.10 36
43.12 25
43.14 35
43.16 28
43.18 43
43.20 30
43.22 32
43.24 31
43.26 28
43.28 30
43.30 33
43.32 40
43.34 38
43.36 28
43.38 34
43.40 28
43.42 45
43.44 41
43.46 35
43.48 28
43.50 38
43.52 27
43.54 42
43.56 39
43.58 21
43.60 42
43.62 27
43.64 43
43.66 38
43.68 29
43.70 46
43.72 38
43.74 33
43.76 38
43.78 39
43.80 36
43.82 28
43.84 30
43.86 46
43.88 39
43.90 34
43.92 47
43.94 34
43.96 38
43.98 45
44.00 32
44.02 35
44.04 34
44.06 33
44.08 41
44.10 32
44.12 47
44.14 41
44.16 42
44.18 29
44.20 39
44.22 42
44.24 38
44.26 41
44.28 34
44.30 27
44.32 41
44.34 33
44.36 33
44.38 39
44.40 30
44.42 34
44.44 33
44.46 38
44.48 27
44.50 42
44.52 35
44.54 36
44.56 45
44.58 28
44.60 48
44.62 36
44.64 35
44.66 37
44.68 37
44.70 42
44.72 48
44.74 32
44.76 30
44.78 35
44.80 33
44.82 34
44.84 38
44.86 44
44.88 39
44.90 35
44.92 31
44.94 31
44.96 31
44.98 52
45.00 35
45.02 38
45.04 47
45.06 34
45.08 39
45.10 48
45.12 35
45.14 40
45.16 29
45.18 31
45.20 36
45.22 40
45.24 35
45.26 35
45.28 29
45.30 35
45.32 46
45.34 37
45.36 36
45.38 37
45.40 48
45.42 38
45.44 34
45.46 42
45.48 38
45.50 32
45.52 35
45.54 41
45.56 38
45.58 36
45.60 42
45.62 34
45.64 34
45.66 46
45.68 40
45.70 39
45.72 41
45.74 42
45.76 40
45.78 38
45.80 42
45.82 32
45.84 45
45.86 40
45.88 29
45.90 46
45.92 41
45.94 36
45.96 29
45.98 33
46.00 43
46.02 45
46.04 43
46.06 38
46.08 38
46.10 42
46.12 43
46.14 47
46.16 49
46.18 42
46.20 53
46.22 36
46.24 50
46.26 42
46.28 44
46.30 47
46.32 39
46.34 52
46.36 53
46.38 41
46.40 49
46.42 50
46.44 62
46.46 53
46.48 40
46.50 47
46.52 47
46.54 55
46.56 47
46.58 51
46.60 37
46.62 38
46.64 50
46.66 59
46.68 50
46.70 53
46.72 55
46.74 38
46.76 56
46.78 52
46.80 61
46.82 51
46.84 64
46.86 60
46.88 63
46.90 69
46.92 82
46.94 67
46.96 74
46.98 68
47.00 71
47.02 80
47.04 88
47.06 97
47.08 97
47.10 104
47.12 90
47.14 100
47.16 115
47.18 138
47.20 174
47.22 186
47.24 238
47.26 276
47.28 325
47.30 398
47.32 413
47.34 527
47.36 711
47.38 878
47.40 1172
47.42 1701
47.44 2531
47.46 3541
47.48 4993
47.50 6500
47.52 6887
47.54 6434
47.56 4670
47.58 3598
47.60 3189
47.62 3523
47.64 3772
47.66 3331
47.68 2505
47.70 1577
47.72 928
47.74 678
47.76 472
47.78 393
47.80 332
47.82 245
47.84 186
47.86 180
47.88 148
47.90 142
47.92 114
47.94 111
47.96 95
47.98 108
48.00 88
48.02 101
48.04 85
48.06 67
48.08 62
48.10 66
48.12 50
48.14 56
48.16 63
48.18 67
48.20 45
48.22 73
48.24 54
48.26 58
48.28 61
48.30 44
48.32 64
48.34 59
48.36 41
48.38 51
48.40 51
48.42 42
48.44 57
48.46 49
48.48 53
48.50 45
48.52 49
48.54 50
48.56 48
48.58 44
48.60 44
48.62 52
48.64 36
48.66 44
48.68 50
48.70 54
48.72 30
48.74 46
48.76 46
48.78 31
48.80 54
48.82 45
48.84 34
48.86 38
48.88 37
48.90 55
48.92 44
48.94 31
48.96 55
48.98 37
49.00 36
49.02 39
49.04 28
49.06 41
49.08 31
49.10 37
49.12 37
49.14 33
49.16 41
49.18 33
49.20 38
49.22 45
49.24 37
49.26 41
49.28 43
49.30 44
49.32 36
49.34 41
49.36 35
49.38 39
49.40 39
49.42 35
49.44 28
49.46 31
49.48 43
49.50 38
49.52 39
49.54 31
49.56 40
49.58 39
49.60 42
49.62 47
49.64 39
49.66 46
49.68 33
49.70 43
49.72 39
49.74 41
49.76 27
49.78 39
49.80 35
49.82 44
49.84 32
49.86 35
49.88 39
49.90 43
49.92 39
49.94 33
49.96 40
49.98 34
50.00 32
50.02 37
50.04 41
50.06 33
50.08 34
50.10 34
50.12 40
50.14 31
50.16 43
50.18 37
50.20 41
50.22 33
50.24 39
50.26 41
50.28 29
50.30 32
50.32 38
50.34 41
50.36 36
50.38 31
50.40 24
50.42 42
50.44 34
50.46 39
50.48 42
50.50 33
50.52 34
50.54 41
50.56 26
50.58 39
50.60 39
50.62 45
50.64 30
50.66 43
50.68 47
50.70 44
50.72 41
50.74 41
50.76 29
50.78 27
50.80 46
50.82 42
50.84 44
50.86 47
50.88 36
50.90 36
50.92 40
50.94 45
50.96 41
50.98 42
51.00 40
51.02 34
51.04 43
51.06 42
51.08 32
51.10 48
51.12 44
51.14 27
51.16 34
51.18 29
51.20 43
51.22 47
51.24 36
51.26 40
51.28 46
51.30 33
51.32 34
51.34 43
51.36 39
51.38 27
51.40 42
51.42 33
51.44 34
51.46 34
51.48 42
51.50 38
51.52 34
51.54 40
51.56 41
51.58 40
51.60 26
51.62 41
51.64 40
51.66 29
51.68 32
51.70 36
51.72 53
51.74 36
51.76 34
51.78 41
51.80 37
51.82 38
51.84 45
51.86 34
51.88 39
51.90 38
51.92 31
51.94 31
51.96 40
51.98 28
52.00 47
52.02 35
52.04 38
52.06 26
52.08 27
52.10 27
52.12 45
52.14 34
52.16 36
52.18 43
52.20 49
52.22 36
52.24 43
52.26 37
52.28 44
52.30 42
52.32 32
52.34 43
52.36 47
52.38 37
52.40 34
52.42 37
52.44 32
52.46 34
52.48 46
52.50 27
52.52 37
52.54 42
52.56 38
52.58 44
52.60 41
52.62 50
52.64 47
52.66 46
52.68 37
52.70 39
52.72 41
52.74 53
52.76 24
52.78 47
52.80 34
52.82 43
52.84 31
52.86 44
52.88 31
52.90 25
52.92 39
52.94 34
52.96 43
52.98 43
53.00 36
53.02 41
53.04 49
53.06 35
53.08 43
53.10 35
53.12 28
53.14 35
53.16 46
53.18 35
53.20 33
53.22 42
53.24 39
53.26 41
53.28 35
53.30 26
53.32 36
53.34 46
53.36 63
53.38 43
53.40 51
53.42 37
53.44 39
53.46 53
53.48 39
53.50 33
53.52 46
53.54 38
53.56 41
53.58 36
53.60 48
53.62 38
53.64 40
53.66 40
53.68 45
53.70 39
53.72 51
53.74 44
53.76 54
53.78 40
53.80 54
53.82 33
53.84 43
53.86 35
53.88 52
53.90 45
53.92 27
53.94 39
53.96 40
53.98 42
54.00 54
54.02 35
54.04 40
54.06 40
54.08 46
54.10 58
54.12 46
54.14 43
54.16 46
54.18 51
54.20 48
54.22 36
54.24 40
54.26 41
54.28 39
54.30 43
54.32 43
54.34 42
54.36 47
54.38 34
54.40 43
54.42 44
54.44 44
54.46 36
54.48 42
54.50 40
54.52 47
54.54 49
54.56 46
54.58 43
54.60 51
54.62 43
54.64 41
54.66 49
54.68 42
54.70 43
54.72 46
54.74 59
54.76 55
54.78 50
54.80 42
54.82 45
54.84 55
54.86 48
54.88 40
54.90 52
54.92 48
54.94 41
54.96 39
54.98 47
55.00 44
55.02 52
55.04 68
55.06 57
55.08 47
55.10 65
55.12 45
55.14 57
55.16 55
55.18 49
55.20 62
55.22 61
55.24 46
55.26 45
55.28 63
55.30 57
55.32 58
55.34 56
55.36 57
55.38 56
55.40 50
55.42 54
55.44 58
55.46 66
55.48 52
55.50 64
55.52 61
55.54 82
55.56 62
55.58 61
55.60 74
55.62 59
55.64 68
55.66 65
55.68 67
55.70 52
55.72 57
55.74 63
55.76 89
55.78 75
55.80 81
55.82 74
55.84 85
55.86 90
55.88 86
55.90 85
55.92 91
55.94 94
55.96 115
55.98 111
56.00 87
56.02 115
56.04 100
56.06 130
56.08 115
56.10 128
56.12 118
56.14 141
56.16 148
56.18 176
56.20 190
56.22 193
56.24 247
56.26 284
56.28 310
56.30 385
56.32 438
56.34 486
56.36 533
56.38 650
56.40 742
56.42 996
56.44 1297
56.46 1772
56.48 2601
56.50 3874
56.52 5589
56.54 8023
56.56 9993
56.58 10514
56.60 8950
56.62 6438
56.64 4285
56.66 3668
56.68 4047
56.70 4714
56.72 5355
56.74 5247
56.76 4156
56.78 2752
56.80 1641
56.82 1113
56.84 744
56.86 579
56.88 492
56.90 399
56.92 328
56.94 274
56.96 249
56.98 211
57.00 185
57.02 177
57.04 172
57.06 157
57.08 161
57.10 141
57.12 118
57.14 97
57.16 95
57.18 106
57.20 113
57.22 78
57.24 95
57.26 97
57.28 88
57.30 73
57.32 75
57.34 94
57.36 95
57.38 76
57.40 70
57.42 79
57.44 76
57.46 63
57.48 67
57.50 78
57.52 74
57.54 88
57.56 70
57.58 56
57.60 65
57.62 65
57.64 68
57.66 59
57.68 56
57.70 52
57.72 63
57.74 62
57.76 68
57.78 53
57.80 57
57.82 57
57.84 55
57.86 50
57.88 69
57.90 63
57.92 71
57.94 59
57.96 53
57.98 53
58.00 51
58.02 44
58.04 60
58.06 43
58.08 49
58.10 65
58.12 58
58.14 60
58.16 60
58.18 51
58.20 59
58.22 55
58.24 60
58.26 58
58.28 50
58.30 45
58.32 60
58.34 65
58.36 46
58.38 44
58.40 41
58.42 57
58.44 42
58.46 59
58.48 44
58.50 48
58.52 58
58.54 64
58.56 41
58.58 51
58.60 58
58.62 50
58.64 52
58.66 47
58.68 47
58.70 45
58.72 53
58.74 52
58.76 37
58.78 45
58.80 61
58.82 50
58.84 43
58.86 40
58.88 60
58.90 61
58.92 50
58.94 63
58.96 54
58.98 57
59.00 49
59.02 43
59.04 64
59.06 61
59.08 44
59.10 55
59.12 42
59.14 60
59.16 61
59.18 48
59.20 40
59.22 54
59.24 57
59.26 54
59.28 52
59.30 54
59.32 48
59.34 54
59.36 64
59.38 53
59.40 54
59.42 48
59.44 50
59.46 52
59.48 42
59.50 48
59.52 60
59.54 48
59.56 50
59.58 56
59.60 63
59.62 63
59.64 55
59.66 37
59.68 51
59.70 54
59.72 52
59.74 43
59.76 60
59.78 60
59.80 69
59.82 42
59.84 56
59.86 47
59.88 59
59.90 53
59.92 51
59.94 48
59.96 54
59.98 47
60.00 55
60.02 61
60.04 44
60.06 45
60.08 51
60.10 70
60.12 57
60.14 43
60.16 56
60.18 57
60.20 51
60.22 50
60.24 58
60.26 52
60.28 52
60.30 65
60.32 43
60.34 42
60.36 39
60.38 51
60.40 49
60.42 60
60.44 49
60.46 46
60.48 55
60.50 47
60.52 53
60.54 62
60.56 50
60.58 40
60.60 55
60.62 41
60.64 59
60.66 52
60.68 59
60.70 55
60.72 57
60.74 48
60.76 43
60.78 61
60.80 53
60.82 45
60.84 50
60.86 58
60.88 54
60.90 59
60.92 53
60.94 49
60.96 55
60.98 52
61.00 58
61.02 51
61.04 53
61.06 59
61.08 55
61.10 54
61.12 62
61.14 53
61.16 57
61.18 67
61.20 48
61.22 63
61.24 53
61.26 62
61.28 53
61.30 47
61.32 48
61.34 58
61.36 63
61.38 57
61.40 54
61.42 60
61.44 64
61.46 44
61.48 70
61.50 73
61.52 69
61.54 52
61.56 55
61.58 75
61.60 69
61.62 56
61.64 79
61.66 67
61.68 69
61.70 71
61.72 62
61.74 62
61.76 61
61.78 78
61.80 57
61.82 82
61.84 70
61.86 63
61.88 70
61.90 69
61.92 87
61.94 85
61.96 85
61.98 78
62.00 84
62.02 73
62.04 86
62.06 91
62.08 88
62.10 106
62.12 89
62.14 78
62.16 72
62.18 103
62.20 89
62.22 99
62.24 129
62.26 103
62.28 96
62.30 115
62.32 106
62.34 122
62.36 117
62.38 145
62.40 147
62.42 142
62.44 178
62.46 197
62.48 205
62.50 247
62.52 270
62.54 297
62.56 334
62.58 365
62.60 424
62.62 445
62.64 548
62.66 702
62.68 846
62.70 1167
62.72 1541
62.74 2215
62.76 3224
62.78 4736
62.80 6511
62.82 8450
62.84 9195
62.86 8009
62.88 5875
62.90 3952
62.92 2965
62.94 2798
62.96 3139
62.98 3902
63.00 4560
63.02 4500
63.04 3763
63.06 2669
63.08 1572
63.10 1029
63.12 797
63.14 587
63.16 434
63.18 366
63.20 310
63.22 262
63.24 220
63.26 198
63.28 214
63.30 177
63.32 170
63.34 162
63.36 140
63.38 105
63.40 127
63.42 122
63.44 110
63.46 84
63.48 108
63.50 109
63.52 115
63.54 97
63.56 93
63.58 77
63.60 93
63.62 83
63.64 97
63.66 88
63.68 81
63.70 87
63.72 64
63.74 85
63.76 92
63.78 91
63.80 69
63.82 75
63.84 84
63.86 62
63.88 66
63.90 76
63.92 66
63.94 66
63.96 64
63.98 62
64.00 70
64.02 72
64.04 68
64.06 68
64.08 69
64.10 59
64.12 56
64.14 91
64.16 73
64.18 61
64.20 61
64.22 55
64.24 54
64.26 52
64.28 59
64.30 56
64.32 56
64.34 62
64.36 60
64.38 54
64.40 74
64.42 53
64.44 71
64.46 58
64.48 52
64.50 63
64.52 59
64.54 48
64.56 44
64.58 59
64.60 55
64.62 63
64.64 66
64.66 60
64.68 56
64.70 50
64.72 49
64.74 60
64.76 71
64.78 40
64.80 65
64.82 53
64.84 66
64.86 60
64.88 59
64.90 61
64.92 56
64.94 59
64.96 57
64.98 65
65.00 53
65.02 51
65.04 59
65.06 59
65.08 60
65.10 66
65.12 44
65.14 54
65.16 54
65.18 73
65.20 53
65.22 59
65.24 48
65.26 60
65.28 55
65.30 60
65.32 46
65.34 56
65.36 58
65.38 68
65.40 65
65.42 58
65.44 63
65.46 63
65.48 49
65.50 65
65.52 64
65.54 54
65.56 70
65.58 59
65.60 64
65.62 70
65.64 55
65.66 70
65.68 56
65.70 70
65.72 54
65.74 76
65.76 57
65.78 62
65.80 57
65.82 74
65.84 70
65.86 63
65.88 76
65.90 76
65.92 73
65.94 58
65.96 67
65.98 85
66.00 85
66.02 85
66.04 86
66.06 100
66.08 107
66.10 106
66.12 110
66.14 110
66.16 135
66.18 172
66.20 203
66.22 225
66.24 359
66.26 419
66.28 579
66.30 784
66.32 1098
66.34 1401
66.36 1438
66.38 1164
66.40 861
66.42 610
66.44 514
66.46 430
66.48 524
66.50 580
66.52 697
66.54 787
66.56 740
66.58 578
66.60 391
66.62 251
66.64 202
66.66 147
66.68 125
66.70 138
66.72 92
66.74 107
66.76 85
66.78 101
66.80 95
66.82 88
66.84 78
66.86 71
66.88 88
66.90 87
66.92 80
66.94 79
66.96 86
66.98 80
67.00 77
67.02 86
67.04 84
67.06 85
67.08 79
67.10 97
67.12 76
67.14 62
67.16 88
67.18 74
67.20 88
67.22 88
67.24 83
67.26 102
67.28 89
67.30 106
67.32 91
67.34 101
67.36 95
67.38 97
67.40 107
67.42 118
67.44 109
67.46 131
67.48 123
67.50 163
67.52 174
67.54 191
67.56 201
67.58 206
67.60 250
67.62 275
67.64 271
67.66 320
67.68 346
67.70 402
67.72 467
67.74 563
67.76 666
67.78 892
67.80 1208
67.82 1619
67.84 2307
67.86 3392
67.88 4832
67.90 6396
67.92 7371
67.94 7217
67.96 5551
67.98 3918
68.00 2690
68.02 2082
68.04 2073
68.06 2354
68.08 2911
68.10 3673
68.12 3835
68.14 3553
68.16 2562
68.18 1700
68.20 1075
68.22 772
68.24 552
68.26 423
68.28 365
68.30 323
68.32 287
68.34 216
68.36 212
68.38 172
68.40 165
68.42 181
68.44 155
68.46 157
68.48 131
68.50 140
68.52 138
68.54 152
68.56 152
68.58 133
68.60 135
68.62 133
68.64 134
68.66 142
68.68 162
68.70 148
68.72 192
68.74 168
68.76 169
68.78 178
68.80 178
68.82 206
68.84 240
68.86 283
68.88 309
68.90 404
68.92 516
68.94 636
68.96 854
68.98 1154
69.00 1729
69.02 2452
69.04 3189
69.06 3687
69.08 3579
69.10 2830
69.12 2076
69.14 1335
69.16 1082
69.18 1032
69.20 1212
69.22 1398
69.24 1826
69.26 1842
69.28 1842
69.30 1390
69.32 966
69.34 631
69.36 424
69.38 329
69.40 250
69.42 257
69.44 155
69.46 162
69.48 156
69.50 114
69.52 114
69.54 87
69.56 96
69.58 97
69.60 92
69.62 80
69.64 99
69.66 83
69.68 87
69.70 77
69.72 71
69.74 86
69.76 54
69.78 73
69.80 63
69.82 69
69.84 74
69.86 54
69.88 53
69.90 59
69.92 67
69.94 57
69.96 55
69.98 53
70.00 56
70.02 56
70.04 56
70.06 55
70.08 54
70.10 55
70.12 61
70.14 57
70.16 54
70.18 47
70.20 54
70.22 43
70.24 54
70.26 57
70.28 56
70.30 66
70.32 50
70.34 52
70.36 55
70.38 60
70.40 50
70.42 49
70.44 52
70.46 52
70.48 53
70.50 50
70.52 48
70.54 46
70.56 57
70.58 62
70.60 54
70.62 52
70.64 40
70.66 54
70.68 35
70.70 47
70.72 52
70.74 49
70.76 39
70.78 41
70.80 50
70.82 35
70.84 44
70.86 52
70.88 40
70.90 43
70.92 38
70.94 45
70.96 42
70.98 47
71.00 53
71.02 47
71.04 55
71.06 46
71.08 34
71.10 44
71.12 44
71.14 39
71.16 37
71.18 41
71.20 44
71.22 35
71.24 49
71.26 45
71.28 49
71.30 41
71.32 54
71.34 30
71.36 51
71.38 44
71.40 39
71.42 45
71.44 47
71.46 63
71.48 47
71.50 47
71.52 50
71.54 35
71.56 33
71.58 53
71.60 36
71.62 49
71.64 42
71.66 57
71.68 43
71.70 40
71.72 49
71.74 42
71.76 39
71.78 41
71.80 41
71.82 36
71.84 45
71.86 37
71.88 61
71.90 41
71.92 43
71.94 38
71.96 44
71.98 31
72.00 45
72.02 40
72.04 36
72.06 33
72.08 59
72.10 50
72.12 51
72.14 33
72.16 54
72.18 44
72.20 61
72.22 71
72.24 60
72.26 48
72.28 69
72.30 66
72.32 56
72.34 66
72.36 75
72.38 80
72.40 94
72.42 123
72.44 169
72.46 202
72.48 300
72.50 400
72.52 588
72.54 651
72.56 620
72.58 498
72.60 329
72.62 212
72.64 205
72.66 164
72.68 182
72.70 205
72.72 267
72.74 343
72.76 352
72.78 324
72.80 222
72.82 184
72.84 104
72.86 81
72.88 68
72.90 53
72.92 50
72.94 52
72.96 59
72.98 67
73.00 41
73.02 44
73.04 38
73.06 41
73.08 43
73.10 35
73.12 47
73.14 38
73.16 39
73.18 42
73.20 38
73.22 31
73.24 37
73.26 45
73.28 44
73.30 39
73.32 46
73.34 47
73.36 39
73.38 26
73.40 37
73.42 31
73.44 44
73.46 28
73.48 39
73.50 40
73.52 32
73.54 47
73.56 26
73.58 36
73.60 26
73.62 32
73.64 33
73.66 30
73.68 43
73.70 48
73.72 31
73.74 47
73.76 30
73.78 30
73.80 45
73.82 30
73.84 27
73.86 36
73.88 43
73.90 30
73.92 32
73.94 35
73.96 33
73.98 43
74.00 38
74.02 36
74.04 36
74.06 36
74.08 31
74.10 34
74.12 30
74.14 35
74.16 31
74.18 35
74.20 36
74.22 41
74.24 26
74.26 32
74.28 29
74.30 30
74.32 36
74.34 33
74.36 37
74.38 32
74.40 35
74.42 24
74.44 29
74.46 27
74.48 34
74.50 34
74.52 31
74.54 35
74.56 29
74.58 40
74.60 28
74.62 31
74.64 47
74.66 42
74.68 31
74.70 44
74.72 35
74.74 31
74.76 24
74.78 43
74.80 35
74.82 30
74.84 36
74.86 26
74.88 34
74.90 31
74.92 42
74.94 30
74.96 30
74.98 45
75.00 37
75.02 36
75.04 35
75.06 35
75.08 32
75.10 41
75.12 43
75.14 34
75.16 38
75.18 32
75.20 23
75.22 27
75.24 31
75.26 23
75.28 28
75.30 27
75.32 35
75.34 30
75.36 40
75.38 48
75.40 35
75.42 39
75.44 42
75.46 36
75.48 32
75.50 49
75.52 39
75.54 41
75.56 30
75.58 35
75.60 34
75.62 27
75.64 44
75.66 40
75.68 32
75.70 35
75.72 40
75.74 36
75.76 30
75.78 40
75.80 35
75.82 50
75.84 37
75.86 48
75.88 52
75.90 43
75.92 33
75.94 43
75.96 35
75.98 30
76.00 37
76.02 42
76.04 31
76.06 36
76.08 46
76.10 41
76.12 38
76.14 30
76.16 38
76.18 38
76.20 38
76.22 35
76.24 45
76.26 33
76.28 35
76.30 35
76.32 42
76.34 44
76.36 49
76.38 41
76.40 33
76.42 49
76.44 48
76.46 49
76.48 65
76.50 54
76.52 47
76.54 56
76.56 64
76.58 46
76.60 65
76.62 64
76.64 72
76.66 43
76.68 83
76.70 69
76.72 89
76.74 106
76.76 139
76.78 175
76.80 178
76.82 233
76.84 316
76.86 443
76.88 621
76.90 877
76.92 1105
76.94 1196
76.96 1094
76.98 828
77.00 545
77.02 411
77.04 326
77.06 296
77.08 312
77.10 354
77.12 413
77.14 486
77.16 615
77.18 589
77.20 504
77.22 342
77.24 284
77.26 177
77.28 121
77.30 93
77.32 99
77.34 65
77.36 66
77.38 50
77.40 52
77.42 47
77.44 52
77.46 55
77.48 46
77.50 49
77.52 44
77.54 51
77.56 30
77.58 45
77.60 47
77.62 36
77.64 45
77.66 42
77.68 29
77.70 34
77.72 37
77.74 34
77.76 41
77.78 36
77.80 38
77.82 36
77.84 45
77.86 35
77.88 35
77.90 27
77.92 38
77.94 37
77.96 33
77.98 29
78.00 27
78.02 25
78.04 38
78.06 43
78.08 37
78.10 42
78.12 32
78.14 23
78.16 32
78.18 31
78.20 36
78.22 32
78.24 32
78.26 40
78.28 34
78.30 32
78.32 39
78.34 34
78.36 32
78.38 39
78.40 38
78.42 27
78.44 33
78.46 32
78.48 33
78.50 36
78.52 31
78.54 37
78.56 28
78.58 29
78.60 26
78.62 39
78.64 35
78.66 29
78.68 33
78.70 29
78.72 32
78.74 32
78.76 28
78.78 33
78.80 26
78.82 31
78.84 31
78.86 29
78.88 29
78.90 39
78.92 42
78.94 37
78.96 44
78.98 30
79.00 37
79.02 30
79.04 28
79.06 33
79.08 35
79.10 29
79.12 26
79.14 34
79.16 40
79.18 28
79.20 33
79.22 26
79.24 26
79.26 34
79.28 29
79.30 29
79.32 25
79.34 30
79.36 30
79.38 36
79.40 30
79.42 29
79.44 30
79.46 29
79.48 29
79.50 29
79.52 30
79.54 17
79.56 33
79.58 27
79.60 31
79.62 36
79.64 34
79.66 30
79.68 28
79.70 34
79.72 31
79.74 32
79.76 43
79.78 36
79.80 26
79.82 25
79.84 30
79.86 30
79.88 29
79.90 22
79.92 37
79.94 34
79.96 33
79.98 27
80.00 35
