27 13
27.02 5
27.04 9
27.06 9
27.08 12
27.10 10
27.12 7
27.14 11
27.16 13
27.18 8
27.20 9
27.22 12
27.24 13
27.26 10
27.28 8
27.30 12
27.32 16
27.34 9
27.36 15
27.38 12
27.40 13
27.42 10
27.44 9
27.46 9
27.48 10
27.50 10
27.52 16
27.54 10
27.56 12
27.58 15
27.60 9
27.62 13
27.64 12
27.66 9
27.68 12
27.70 11
27.72 11
27.74 10
27.76 10
27.78 14
27.80 11
27.82 12
27.84 9
27.86 14
27.88 8
27.90 9
27.92 7
27.94 17
27.96 6
27.98 13
28.00 15
28.02 14
28.04 11
28.06 8
28.08 3
28.10 6
28.12 10
28.14 15
28.16 13
28.18 10
28.20 17
28.22 14
28.24 14
28.26 10
28.28 18
28.30 11
28.32 6
28.34 9
28.36 11
28.38 9
28.40 13
28.42 14
28.44 16
28.46 17
28.48 9
28.50 14
28.52 9
28.54 4
28.56 16
28.58 14
28.60 12
28.62 9
28.64 14
28.66 4
28.68 12
28.70 14
28.72 9
28.74 11
28.76 11
28.78 11
28.80 8
28.82 11
28.84 10
28.86 9
28.88 5
28.90 19
28.92 22
28.94 10
28.96 13
28.98 10
29.00 16
29.02 11
29.04 21
29.06 16
29.08 11
29.10 17
29.12 15
29.14 11
29.16 6
29.18 16
29.20 12
29.22 16
29.24 11
29.26 9
29.28 14
29.30 12
29.32 11
29.34 7
29.36 12
29.38 13
29.40 17
29.42 12
29.44 9
29.46 10
29.48 12
29.50 16
29.52 10
29.54 12
29.56 15
29.58 9
29.60 14
29.62 9
29.64 11
29.66 15
29.68 10
29.70 12
29.72 6
29.74 8
29.76 16
29.78 12
29.80 14
29.82 12
29.84 14
29.86 14
29.88 7
29.90 17
29.92 18
29.94 14
29.96 12
29.98 10
30.00 18
30.02 13
30.04 10
30.06 10
30.08 6
30.10 13
30.12 11
30.14 10
30.16 11
30.18 13
30.20 14
30.22 17
30.24 10
30.26 11
30.28 13
30.30 16
30.32 15
30.34 21
30.36 12
30.38 19
30.40 16
30.42 17
30.44 10
30.46 13
30.48 16
30.50 17
30.52 16
30.54 21
30.56 14
30.58 21
30.60 12
30.62 17
30.64 18
30.66 19
30.68 15
30.70 20
30.72 10
30.74 11
30.76 13
30.78 16
30.80 11
30.82 19
30.84 26
30.86 21
30.88 19
30.90 18
30.92 16
30.94 18
30.96 21
30.98 23
31.00 28
31.02 40
31.04 23
31.06 24
31.08 34
31.10 32
31.12 20
31.14 24
31.16 27
31.18 32
31.20 41
31.22 31
31.24 42
31.26 35
31.28 48
31.30 56
31.32 65
31.34 65
31.36 69
31.38 58
31.40 66
31.42 92
31.44 96
31.46 137
31.48 161
31.50 205
31.52 236
31.54 315
31.56 387
31.58 548
31.60 704
31.62 962
31.64 1224
31.66 1611
31.68 2212
31.70 3337
31.72 5534
31.74 8718
31.76 9644
31.78 6194
31.80 4427
31.82 5056
31.84 5045
31.86 3074
31.88 1551
31.90 910
31.92 605
31.94 467
31.96 352
31.98 291
32.00 214
32.02 158
32.04 164
32.06 121
32.08 100
32.10 76
32.12 71
32.14 74
32.16 63
32.18 62
32.20 60
32.22 41
32.24 35
32.26 31
32.28 34
32.30 25
32.32 25
32.34 26
32.36 19
32.38 38
32.40 24
32.42 28
32.44 20
32.46 28
32.48 24
32.50 18
32.52 24
32.54 27
32.56 28
32.58 29
32.60 26
32.62 29
32.64 20
32.66 24
32.68 22
32.70 17
32.72 25
32.74 21
32.76 18
32.78 27
32.80 13
32.82 20
32.84 20
32.86 19
32.88 22
32.90 12
32.92 16
32.94 23
32.96 21
32.98 16
33.00 18
33.02 23
33.04 21
33.06 17
33.08 15
33.10 17
33.12 25
33.14 9
33.16 23
33.18 22
33.20 18
33.22 27
33.24 16
33.26 15
33.28 15
33.30 22
33.32 16
33.34 16
33.36 25
33.38 17
33.40 11
33.42 17
33.44 23
33.46 15
33.48 21
33.50 16
33.52 18
33.54 29
33.56 16
33.58 23
33.60 17
33.62 15
33.64 23
33.66 25
33.68 24
33.70 24
33.72 19
33.74 22
33.76 25
33.78 26
33.80 34
33.82 25
33.84 26
33.86 28
33.88 32
33.90 22
33.92 34
33.94 43
33.96 41
33.98 48
34.00 32
34.02 48
34.04 66
34.06 48
34.08 54
34.10 56
34.12 71
34.14 89
34.16 123
34.18 135
34.20 202
34.22 257
34.24 410
34.26 527
34.28 559
34.30 764
34.32 1070
34.34 1599
34.36 2525
34.38 4255
34.40 4578
34.42 3356
34.44 2412
34.46 2460
34.48 2761
34.50 2027
34.52 1202
34.54 737
34.56 466
34.58 297
34.60 234
34.62 213
34.64 171
34.66 124
34.68 124
34.70 97
34.72 98
34.74 54
34.76 66
34.78 47
34.80 69
34.82 42
34.84 38
34.86 43
34.88 34
34.90 33
34.92 33
34.94 46
34.96 35
34.98 38
35.00 28
35.02 23
35.04 24
35.06 26
35.08 29
35.10 23
35.12 26
35.14 32
35.16 22
35.18 25
35.20 33
35.22 16
35.24 31
35.26 24
35.28 28
35.30 18
35.32 31
35.34 33
35.36 32
35.38 23
35.40 27
35.42 26
35.44 24
35.46 41
35.48 36
35.50 31
35.52 35
35.54 32
35.56 41
35.58 48
35.60 47
35.62 44
35.64 52
35.66 65
35.68 68
35.70 54
35.72 64
35.74 70
35.76 73
35.78 84
35.80 93
35.82 92
35.84 96
35.86 105
35.88 154
35.90 154
35.92 168
35.94 195
35.96 247
35.98 274
36.00 403
36.02 565
36.04 598
36.06 772
36.08 1022
36.10 1311
36.12 1810
36.14 2508
36.16 3433
36.18 4782
36.20 7016
36.22 9737
36.24 10354
36.26 8059
36.28 5813
36.30 5635
36.32 5936
36.34 5026
36.36 3424
36.38 2060
36.40 1344
36.42 1005
36.44 674
36.46 600
36.48 430
36.50 358
36.52 279
36.54 233
36.56 189
36.58 153
36.60 136
36.62 126
36.64 112
36.66 89
36.68 83
36.70 83
36.72 84
36.74 64
36.76 55
36.78 53
36.80 63
36.82 49
36.84 41
36.86 51
36.88 45
36.90 28
36.92 24
36.94 33
36.96 29
36.98 34
37.00 32
37.02 30
37.04 28
37.06 38
37.08 20
37.10 27
37.12 18
37.14 21
37.16 27
37.18 20
37.20 28
37.22 26
37.24 16
37.26 14
37.28 27
37.30 22
37.32 22
37.34 23
37.36 22
37.38 17
37.40 18
37.42 28
37.44 17
37.46 18
37.48 12
37.50 20
37.52 15
37.54 20
37.56 18
37.58 19
37.60 17
37.62 14
37.64 23
37.66 15
37.68 19
37.70 20
37.72 14
37.74 15
37.76 11
37.78 18
37.80 18
37.82 18
37.84 17
37.86 21
37.88 8
37.90 15
37.92 15
37.94 19
37.96 12
37.98 18
38.00 24
38.02 16
38.04 20
38.06 13
38.08 18
38.10 18
38.12 7
38.14 18
38.16 26
38.18 18
38.20 15
38.22 17
38.24 18
38.26 13
38.28 11
38.30 21
38.32 11
38.34 15
38.36 14
38.38 11
38.40 18
38.42 11
38.44 16
38.46 22
38.48 12
38.50 16
38.52 18
38.54 11
38.56 18
38.58 18
38.60 14
38.62 14
38.64 15
38.66 17
38.68 17
38.70 14
38.72 19
38.74 12
38.76 16
38.78 9
38.80 16
38.82 11
38.84 8
38.86 16
38.88 14
38.90 15
38.92 8
38.94 17
38.96 19
38.98 21
39.00 16
39.02 17
39.04 14
39.06 13
39.08 12
39.10 14
39.12 21
39.14 17
39.16 19
39.18 13
39.20 15
39.22 14
39.24 10
39.26 12
39.28 9
39.30 21
39.32 14
39.34 8
39.36 16
39.38 14
39.40 13
39.42 14
39.44 17
39.46 14
39.48 10
39.50 12
39.52 16
39.54 9
39.56 12
39.58 9
39.60 14
39.62 15
39.64 10
39.66 19
39.68 12
39.70 13
39.72 13
39.74 17
39.76 14
39.78 14
39.80 16
39.82 16
39.84 18
39.86 16
39.88 12
39.90 21
39.92 20
39.94 12
39.96 16
39.98 16
40.00 10
40.02 16
40.04 14
40.06 12
40.08 28
40.10 17
40.12 12
40.14 8
40.16 14
40.18 7
40.20 10
40.22 12
40.24 11
40.26 12
40.28 12
40.30 16
40.32 13
40.34 15
40.36 11
40.38 16
40.40 16
40.42 16
40.44 15
40.46 12
40.48 11
40.50 15
40.52 12
40.54 5
40.56 9
40.58 14
40.60 13
40.62 8
40.64 14
40.66 14
40.68 10
40.70 8
40.72 12
40.74 11
40.76 13
40.78 20
40.80 18
40.82 15
40.84 13
40.86 18
40.88 10
40.90 12
40.92 6
40.94 11
40.96 15
40.98 14
41.00 16
41.02 21
41.04 11
41.06 13
41.08 19
41.10 13
41.12 16
41.14 12
41.16 15
41.18 6
41.20 14
41.22 7
41.24 14
41.26 22
41.28 15
41.30 12
41.32 17
41.34 9
41.36 10
41.38 17
41.40 11
41.42 11
41.44 12
41.46 11
41.48 7
41.50 15
41.52 11
41.54 13
41.56 18
41.58 12
41.60 10
41.62 14
41.64 12
41.66 16
41.68 14
41.70 26
41.72 13
41.74 14
41.76 10
41.78 12
41.80 21
41.82 14
41.84 18
41.86 12
41.88 14
41.90 8
41.92 18
41.94 9
41.96 17
41.98 14
42.00 12
42.02 21
42.04 14
42.06 13
42.08 19
42.10 13
42.12 10
42.14 13
42.16 15
42.18 14
42.20 10
42.22 18
42.24 16
42.26 16
42.28 12
42.30 14
42.32 15
42.34 12
42.36 14
42.38 14
42.40 15
42.42 13
42.44 7
42.46 13
42.48 9
42.50 9
42.52 16
42.54 12
42.56 15
42.58 15
42.60 4
42.62 9
42.64 13
42.66 22
42.68 20
42.70 12
42.72 11
42.74 12
42.76 11
42.78 13
42.80 9
42.82 14
42.84 13
42.86 11
42.88 18
42.90 11
42.92 14
42.94 11
42.96 7
42.98 11
43.00 13
43.02 16
43.04 9
43.06 15
43.08 16
43.10 12
43.12 10
43.14 14
43.16 17
43.18 14
43.20 13
43.22 16
43.24 12
43.26 11
43.28 13
43.30 17
43.32 12
43.34 8
43.36 15
43.38 13
43.40 12
43.42 11
43.44 10
43.46 12
43.48 11
43.50 14
43.52 8
43.54 15
43.56 14
43.58 19
43.60 14
43.62 13
43.64 10
43.66 13
43.68 9
43.70 19
43.72 13
43.74 14
43.76 12
43.78 14
43.80 10
43.82 15
43.84 14
43.86 14
43.88 10
43.90 15
43.92 18
43.94 12
43.96 14
43.98 11
44.00 11
44.02 7
44.04 11
44.06 9
44.08 22
44.10 9
44.12 18
44.14 12
44.16 12
44.18 12
44.20 17
44.22 10
44.24 16
44.26 15
44.28 21
44.30 16
44.32 18
44.34 11
44.36 7
44.38 13
44.40 10
44.42 17
44.44 18
44.46 18
44.48 17
44.50 16
44.52 17
44.54 8
44.56 9
44.58 8
44.60 7
44.62 10
44.64 15
44.66 14
44.68 13
44.70 7
44.72 14
44.74 25
44.76 10
44.78 9
44.80 13
44.82 14
44.84 7
44.86 9
44.88 13
44.90 11
44.92 13
44.94 12
44.96 9
44.98 9
45.00 12
45.02 19
45.04 13
45.06 15
45.08 13
45.10 9
45.12 16
45.14 21
45.16 12
45.18 17
45.20 13
45.22 19
45.24 10
45.26 11
45.28 16
45.30 9
45.32 11
45.34 12
45.36 17
45.38 9
45.40 7
45.42 13
45.44 16
45.46 12
45.48 12
45.50 19
45.52 25
45.54 14
45.56 15
45.58 19
45.60 14
45.62 7
45.64 21
45.66 21
45.68 18
45.70 17
45.72 24
45.74 8
45.76 15
45.78 18
45.80 17
45.82 10
45.84 9
45.86 16
45.88 10
45.90 17
45.92 14
45.94 13
45.96 13
45.98 22
46.00 14
46.02 15
46.04 13
46.06 12
46.08 14
46.10 12
46.12 11
46.14 8
46.16 12
46.18 14
46.20 18
46.22 9
46.24 15
46.26 22
46.28 19
46.30 10
46.32 18
46.34 21
46.36 10
46.38 14
46.40 19
46.42 16
46.44 13
46.46 21
46.48 13
46.50 19
46.52 11
46.54 17
46.56 20
46.58 21
46.60 15
46.62 20
46.64 10
46.66 17
46.68 20
46.70 22
46.72 15
46.74 20
46.76 11
46.78 18
46.80 27
46.82 17
46.84 20
46.86 24
46.88 20
46.90 16
46.92 24
46.94 18
46.96 26
46.98 20
47.00 26
47.02 27
47.04 20
47.06 24
47.08 28
47.10 39
47.12 37
47.14 44
47.16 54
47.18 53
47.20 73
47.22 84
47.24 75
47.26 75
47.28 107
47.30 125
47.32 157
47.34 168
47.36 174
47.38 259
47.40 363
47.42 522
47.44 772
47.46 1157
47.48 1599
47.50 1932
47.52 2170
47.54 1732
47.56 1227
47.58 1111
47.60 1102
47.62 1136
47.64 1249
47.66 994
47.68 720
47.70 486
47.72 327
47.74 260
47.76 195
47.78 146
47.80 127
47.82 103
47.84 97
47.86 65
47.88 60
47.90 55
47.92 50
47.94 61
47.96 39
47.98 32
48.00 28
48.02 34
48.04 30
48.06 29
48.08 40
48.10 34
48.12 22
48.14 24
48.16 17
48.18 31
48.20 24
48.22 23
48.24 23
48.26 12
48.28 20
48.30 15
48.32 14
48.34 18
48.36 19
48.38 15
48.40 21
48.42 15
48.44 15
48.46 9
48.48 22
48.50 23
48.52 12
48.54 14
48.56 11
48.58 15
48.60 7
48.62 11
48.64 9
48.66 21
48.68 10
48.70 17
48.72 9
48.74 22
48.76 18
48.78 8
48.80 14
48.82 11
48.84 17
48.86 20
48.88 14
48.90 11
48.92 17
48.94 14
48.96 18
48.98 20
49.00 22
49.02 16
49.04 10
49.06 7
49.08 8
49.10 13
49.12 15
49.14 9
49.16 15
49.18 7
49.20 18
49.22 12
49.24 15
49.26 13
49.28 16
49.30 6
49.32 16
49.34 16
49.36 10
49.38 15
49.40 14
49.42 22
49.44 10
49.46 12
49.48 21
49.50 17
49.52 18
49.54 10
49.56 7
49.58 13
49.60 14
49.62 21
49.64 20
49.66 13
49.68 19
49.70 11
49.72 14
49.74 16
49.76 18
49.78 19
49.80 15
49.82 16
49.84 8
49.86 13
49.88 10
49.90 8
49.92 18
49.94 18
49.96 13
49.98 13
50.00 10
50.02 10
50.04 11
50.06 11
50.08 14
50.10 13
50.12 17
50.14 12
50.16 24
50.18 17
50.20 16
50.22 12
50.24 8
50.26 19
50.28 13
50.30 11
50.32 18
50.34 14
50.36 11
50.38 8
50.40 15
50.42 14
50.44 17
50.46 10
50.48 17
50.50 11
50.52 12
50.54 14
50.56 12
50.58 8
50.60 19
50.62 9
50.64 13
50.66 11
50.68 18
50.70 9
50.72 8
50.74 16
50.76 17
50.78 20
50.80 17
50.82 13
50.84 11
50.86 10
50.88 11
50.90 19
50.92 10
50.94 13
50.96 13
50.98 17
51.00 15
51.02 8
51.04 11
51.06 14
51.08 16
51.10 20
51.12 16
51.14 11
51.16 9
51.18 15
51.20 16
51.22 13
51.24 15
51.26 16
51.28 16
51.30 14
51.32 16
51.34 18
51.36 17
51.38 12
51.40 11
51.42 18
51.44 14
51.46 29
51.48 25
51.50 17
51.52 13
51.54 8
51.56 15
51.58 12
51.60 19
51.62 14
51.64 7
51.66 10
51.68 8
51.70 13
51.72 15
51.74 22
51.76 14
51.78 14
51.80 10
51.82 21
51.84 17
51.86 13
51.88 24
51.90 16
51.92 15
51.94 15
51.96 9
51.98 2
52.00 9
52.02 13
52.04 13
52.06 13
52.08 15
52.10 12
52.12 14
52.14 19
52.16 15
52.18 11
52.20 15
52.22 11
52.24 7
52.26 13
52.28 19
52.30 16
52.32 10
52.34 15
52.36 18
52.38 7
52.40 14
52.42 22
52.44 17
52.46 11
52.48 8
52.50 8
52.52 16
52.54 15
52.56 11
52.58 11
52.60 19
52.62 7
52.64 12
52.66 10
52.68 13
52.70 18
52.72 12
52.74 12
52.76 10
52.78 19
52.80 18
52.82 11
52.84 14
52.86 17
52.88 13
52.90 20
52.92 17
52.94 10
52.96 9
52.98 11
53.00 19
53.02 12
53.04 12
53.06 15
53.08 10
53.10 12
53.12 18
53.14 18
53.16 17
53.18 13
53.20 11
53.22 9
53.24 19
53.26 17
53.28 24
53.30 18
53.32 18
53.34 21
53.36 16
53.38 14
53.40 18
53.42 13
53.44 19
53.46 20
53.48 13
53.50 15
53.52 13
53.54 15
53.56 15
53.58 19
53.60 11
53.62 12
53.64 15
53.66 12
53.68 10
53.70 13
53.72 13
53.74 11
53.76 11
53.78 12
53.80 20
53.82 21
53.84 13
53.86 14
53.88 15
53.90 15
53.92 15
53.94 11
53.96 21
53.98 14
54.00 19
54.02 14
54.04 15
54.06 17
54.08 14
54.10 18
54.12 13
54.14 19
54.16 16
54.18 12
54.20 14
54.22 21
54.24 15
54.26 19
54.28 18
54.30 15
54.32 23
54.34 20
54.36 13
54.38 23
54.40 16
54.42 19
54.44 18
54.46 24
54.48 17
54.50 21
54.52 11
54.54 20
54.56 16
54.58 15
54.60 16
54.62 12
54.64 15
54.66 16
54.68 13
54.70 19
54.72 14
54.74 17
54.76 12
54.78 16
54.80 14
54.82 19
54.84 8
54.86 13
54.88 10
54.90 19
54.92 25
54.94 20
54.96 14
54.98 21
55.00 15
55.02 33
55.04 16
55.06 21
55.08 14
55.10 13
55.12 20
55.14 34
55.16 20
55.18 15
55.20 20
55.22 19
55.24 18
55.26 29
55.28 20
55.30 13
55.32 19
55.34 16
55.36 22
55.38 22
55.40 26
55.42 20
55.44 23
55.46 19
55.48 20
55.50 27
55.52 31
55.54 24
55.56 24
55.58 23
55.60 33
55.62 23
55.64 22
55.66 17
55.68 22
55.70 24
55.72 26
55.74 24
55.76 22
55.78 26
55.80 34
55.82 30
55.84 36
55.86 30
55.88 28
55.90 37
55.92 27
55.94 34
55.96 28
55.98 40
56.00 43
56.02 39
56.04 42
56.06 46
56.08 44
56.10 45
56.12 51
56.14 66
56.16 70
56.18 67
56.20 86
56.22 95
56.24 87
56.26 127
56.28 125
56.30 137
56.32 160
56.34 177
56.36 211
56.38 270
56.40 342
56.42 378
56.44 516
56.46 596
56.48 947
56.50 1208
56.52 1573
56.54 1972
56.56 2370
56.58 2299
56.60 1961
56.62 1555
56.64 1289
56.66 1160
56.68 1204
56.70 1357
56.72 1395
56.74 1255
56.76 959
56.78 686
56.80 513
56.82 402
56.84 309
56.86 261
56.88 210
56.90 178
56.92 162
56.94 140
56.96 93
56.98 99
57.00 94
57.02 87
57.04 66
57.06 70
57.08 65
57.10 53
57.12 58
57.14 43
57.16 51
57.18 48
57.20 38
57.22 39
57.24 45
57.26 29
57.28 32
57.30 32
57.32 30
57.34 32
57.36 32
57.38 32
57.40 35
57.42 24
57.44 23
57.46 30
57.48 31
57.50 19
57.52 30
57.54 18
57.56 25
57.58 22
57.60 26
57.62 24
57.64 15
57.66 22
57.68 28
57.70 26
57.72 29
57.74 25
57.76 24
57.78 17
57.80 26
57.82 20
57.84 23
57.86 16
57.88 30
57.90 19
57.92 31
57.94 30
57.96 20
57.98 13
58.00 18
58.02 14
58.04 26
58.06 13
58.08 17
58.10 18
58.12 16
58.14 29
58.16 18
58.18 20
58.20 20
58.22 24
58.24 13
58.26 20
58.28 16
58.30 27
58.32 15
58.34 26
58.36 18
58.38 16
58.40 27
58.42 22
58.44 13
58.46 9
58.48 16
58.50 15
58.52 16
58.54 17
58.56 28
58.58 14
58.60 18
58.62 13
58.64 23
58.66 13
58.68 19
58.70 21
58.72 20
58.74 14
58.76 15
58.78 16
58.80 20
58.82 20
58.84 24
58.86 14
58.88 17
58.90 15
58.92 18
58.94 25
58.96 25
58.98 21
59.00 10
59.02 17
59.04 20
59.06 14
59.08 23
59.10 15
59.12 11
59.14 15
59.16 12
59.18 21
59.20 20
59.22 17
59.24 15
59.26 25
59.28 12
59.30 25
59.32 12
59.34 23
59.36 20
59.38 16
59.40 14
59.42 13
59.44 20
59.46 27
59.48 20
59.50 16
59.52 7
59.54 14
59.56 18
59.58 17
59.60 18
59.62 16
59.64 14
59.66 21
59.68 16
59.70 24
59.72 19
59.74 21
59.76 20
59.78 22
59.80 19
59.82 17
59.84 23
59.86 16
59.88 17
59.90 12
59.92 28
59.94 16
59.96 23
59.98 16
60.00 24
60.02 23
60.04 28
60.06 22
60.08 16
60.10 19
60.12 23
60.14 19
60.16 13
60.18 15
60.20 19
60.22 22
60.24 15
60.26 20
60.28 26
60.30 25
60.32 20
60.34 23
60.36 20
60.38 17
60.40 17
60.42 21
60.44 26
60.46 22
60.48 6
60.50 13
60.52 14
60.54 22
60.56 19
60.58 14
60.60 19
60.62 20
60.64 15
60.66 18
60.68 20
60.70 16
60.72 29
60.74 23
60.76 20
60.78 16
60.80 16
60.82 15
60.84 20
60.86 13
60.88 19
60.90 16
60.92 8
60.94 12
60.96 14
60.98 22
61.00 16
61.02 21
61.04 21
61.06 26
61.08 22
61.10 21
61.12 15
61.14 30
61.16 31
61.18 15
61.20 19
61.22 18
61.24 26
61.26 24
61.28 29
61.30 20
61.32 20
61.34 22
61.36 20
61.38 27
61.40 21
61.42 21
61.44 21
61.46 17
61.48 26
61.50 17
61.52 21
61.54 15
61.56 21
61.58 20
61.60 30
61.62 20
61.64 27
61.66 30
61.68 29
61.70 17
61.72 28
61.74 27
61.76 32
61.78 23
61.80 10
61.82 28
61.84 22
61.86 30
61.88 22
61.90 23
61.92 40
61.94 26
61.96 26
61.98 14
62.00 30
62.02 33
62.04 32
62.06 37
62.08 28
62.10 24
62.12 22
62.14 39
62.16 32
62.18 35
62.20 34
62.22 31
62.24 34
62.26 47
62.28 38
62.30 42
62.32 46
62.34 41
62.36 52
62.38 65
62.40 54
62.42 68
62.44 70
62.46 74
62.48 94
62.50 97
62.52 113
62.54 124
62.56 127
62.58 157
62.60 161
62.62 186
62.64 221
62.66 289
62.68 326
62.70 383
62.72 514
62.74 699
62.76 986
62.78 1319
62.80 1781
62.82 2073
62.84 2317
62.86 1974
62.88 1519
62.90 1184
62.92 1089
62.94 951
62.96 1081
62.98 1170
63.00 1311
63.02 1193
63.04 1012
63.06 782
63.08 524
63.10 443
63.12 346
63.14 242
63.16 224
63.18 156
63.20 164
63.22 146
63.24 104
63.26 89
63.28 87
63.30 81
63.32 83
63.34 75
63.36 71
63.38 49
63.40 49
63.42 41
63.44 48
63.46 42
63.48 42
63.50 56
63.52 39
63.54 33
63.56 38
63.58 37
63.60 34
63.62 24
63.64 35
63.66 32
63.68 39
63.70 24
63.72 35
63.74 28
63.76 35
63.78 24
63.80 21
63.82 22
63.84 34
63.86 26
63.88 25
63.90 27
63.92 36
63.94 22
63.96 31
63.98 19
64.00 16
64.02 16
64.04 23
64.06 22
64.08 20
64.10 29
64.12 16
64.14 20
64.16 20
64.18 22
64.20 15
64.22 19
64.24 29
64.26 29
64.28 18
64.30 25
64.32 17
64.34 14
64.36 19
64.38 23
64.40 20
64.42 24
64.44 20
64.46 19
64.48 20
64.50 14
64.52 16
64.54 21
64.56 16
64.58 17
64.60 17
64.62 15
64.64 20
64.66 17
64.68 21
64.70 22
64.72 19
64.74 25
64.76 17
64.78 14
64.80 17
64.82 19
64.84 26
64.86 14
64.88 21
64.90 10
64.92 16
64.94 30
64.96 17
64.98 35
65.00 27
65.02 20
65.04 16
65.06 13
65.08 23
65.10 22
65.12 33
65.14 25
65.16 28
65.18 28
65.20 17
65.22 16
65.24 26
65.26 21
65.28 30
65.30 30
65.32 24
65.34 22
65.36 17
65.38 17
65.40 23
65.42 33
65.44 12
65.46 16
65.48 31
65.50 19
65.52 18
65.54 28
65.56 21
65.58 28
65.60 30
65.62 15
65.64 22
65.66 25
65.68 26
65.70 23
65.72 24
65.74 20
65.76 20
65.78 20
65.80 23
65.82 35
65.84 22
65.86 17
65.88 32
65.90 32
65.92 23
65.94 37
65.96 27
65.98 32
66.00 29
66.02 35
66.04 46
66.06 30
66.08 37
66.10 49
66.12 46
66.14 60
66.16 66
66.18 84
66.20 89
66.22 77
66.24 100
66.26 148
66.28 201
66.30 279
66.32 427
66.34 563
66.36 698
66.38 581
66.40 396
66.42 273
66.44 236
66.46 188
66.48 191
66.50 243
66.52 318
66.54 335
66.56 337
66.58 234
66.60 171
66.62 102
66.64 85
66.66 76
66.68 57
66.70 57
66.72 46
66.74 49
66.76 38
66.78 47
66.80 43
66.82 38
66.84 43
66.86 42
66.88 39
66.90 42
66.92 32
66.94 25
66.96 33
66.98 34
67.00 28
67.02 35
67.04 38
67.06 39
67.08 29
67.10 29
67.12 40
67.14 36
67.16 33
67.18 24
67.20 35
67.22 40
67.24 41
67.26 34
67.28 40
67.30 44
67.32 54
67.34 44
67.36 44
67.38 44
67.40 48
67.42 44
67.44 44
67.46 57
67.48 73
67.50 71
67.52 84
67.54 85
67.56 101
67.58 95
67.60 108
67.62 128
67.64 120
67.66 124
67.68 155
67.70 176
67.72 226
67.74 250
67.76 300
67.78 365
67.80 463
67.82 619
67.84 868
67.86 1154
67.88 1677
67.90 2252
67.92 2541
67.94 2374
67.96 1831
67.98 1300
68.00 998
68.02 900
68.04 877
68.06 933
68.08 1120
68.10 1400
68.12 1332
68.14 1126
68.16 852
68.18 585
68.20 442
68.22 374
68.24 285
68.26 228
68.28 180
68.30 169
68.32 140
68.34 134
68.36 117
68.38 89
68.40 98
68.42 90
68.44 85
68.46 82
68.48 72
68.50 67
68.52 70
68.54 59
68.56 46
68.58 58
68.60 77
68.62 62
68.64 67
68.66 59
68.68 61
68.70 77
68.72 79
68.74 65
68.76 79
68.78 74
68.80 90
68.82 111
68.84 115
68.86 113
68.88 143
68.90 155
68.92 225
68.94 268
68.96 332
68.98 451
69.00 591
69.02 719
69.04 839
69.06 832
69.08 741
69.10 650
69.12 537
69.14 461
69.16 407
69.18 406
69.20 423
69.22 466
69.24 485
69.26 430
69.28 427
69.30 338
69.32 255
69.34 208
69.36 168
69.38 145
69.40 133
69.42 119
69.44 98
69.46 87
69.48 85
69.50 58
69.52 62
69.54 76
69.56 44
69.58 64
69.60 46
69.62 36
69.64 34
69.66 42
69.68 36
69.70 31
69.72 31
69.74 25
69.76 24
69.78 30
69.80 30
69.82 20
69.84 24
69.86 29
69.88 20
69.90 29
69.92 21
69.94 23
69.96 21
69.98 30
70.00 23
70.02 26
70.04 26
70.06 17
70.08 28
70.10 22
70.12 11
70.14 19
70.16 26
70.18 19
70.20 24
70.22 19
70.24 19
70.26 28
70.28 26
70.30 23
70.32 22
70.34 25
70.36 14
70.38 13
70.40 11
70.42 12
70.44 19
70.46 19
70.48 13
70.50 17
70.52 17
70.54 20
70.56 23
70.58 20
70.60 20
70.62 26
70.64 22
70.66 11
70.68 13
70.70 13
70.72 20
70.74 17
70.76 20
70.78 18
70.80 17
70.82 18
70.84 11
70.86 19
70.88 17
70.90 16
70.92 13
70.94 18
70.96 10
70.98 23
71.00 10
71.02 17
71.04 16
71.06 26
71.08 22
71.10 15
71.12 23
71.14 13
71.16 17
71.18 12
71.20 21
71.22 17
71.24 16
71.26 15
71.28 17
71.30 16
71.32 17
71.34 22
71.36 17
71.38 19
71.40 10
71.42 20
71.44 13
71.46 21
71.48 17
71.50 22
71.52 13
71.54 18
71.56 16
71.58 14
71.60 16
71.62 17
71.64 16
71.66 22
71.68 14
71.70 18
71.72 15
71.74 18
71.76 15
71.78 13
71.80 18
71.82 16
71.84 15
71.86 18
71.88 16
71.90 13
71.92 17
71.94 19
71.96 18
71.98 19
72.00 19
72.02 8
72.04 21
72.06 26
72.08 22
72.10 16
72.12 18
72.14 19
72.16 20
72.18 21
72.20 18
72.22 21
72.24 17
72.26 18
72.28 21
72.30 26
72.32 24
72.34 34
72.36 25
72.38 26
72.40 40
72.42 54
72.44 52
72.46 59
72.48 87
72.50 115
72.52 150
72.54 219
72.56 206
72.58 161
72.60 109
72.62 97
72.64 75
72.66 96
72.68 71
72.70 97
72.72 92
72.74 86
72.76 129
72.78 96
72.80 88
72.82 54
72.84 45
72.86 36
72.88 37
72.90 29
72.92 27
72.94 25
72.96 23
72.98 17
73.00 17
73.02 14
73.04 15
73.06 13
73.08 28
73.10 24
73.12 18
73.14 19
73.16 20
73.18 16
73.20 18
73.22 8
73.24 20
73.26 17
73.28 16
73.30 15
73.32 11
73.34 16
73.36 8
73.38 10
73.40 9
73.42 15
73.44 15
73.46 13
73.48 11
73.50 14
73.52 14
73.54 16
73.56 13
73.58 7
73.60 10
73.62 18
73.64 13
73.66 11
73.68 13
73.70 12
73.72 7
73.74 10
73.76 15
73.78 10
73.80 15
73.82 17
73.84 14
73.86 5
73.88 10
73.90 18
73.92 18
73.94 9
73.96 16
73.98 24
74.00 12
74.02 11
74.04 12
74.06 20
74.08 14
74.10 14
74.12 18
74.14 12
74.16 13
74.18 13
74.20 18
74.22 12
74.24 16
74.26 18
74.28 14
74.30 13
74.32 13
74.34 13
74.36 11
74.38 13
74.40 9
74.42 11
74.44 12
74.46 12
74.48 11
74.50 15
74.52 16
74.54 11
74.56 11
74.58 12
74.60 16
74.62 12
74.64 13
74.66 18
74.68 9
74.70 10
74.72 13
74.74 23
74.76 16
74.78 17
74.80 16
74.82 15
74.84 11
74.86 8
74.88 14
74.90 16
74.92 15
74.94 15
74.96 16
74.98 8
75.00 15
75.02 19
75.04 10
75.06 19
75.08 14
75.10 10
75.12 10
75.14 14
75.16 15
75.18 10
75.20 13
75.22 17
75.24 9
75.26 12
75.28 18
75.30 10
75.32 9
75.34 10
75.36 19
75.38 13
75.40 9
75.42 13
75.44 13
75.46 14
75.48 6
75.50 15
75.52 11
75.54 21
75.56 10
75.58 13
75.60 10
75.62 19
75.64 11
75.66 14
75.68 10
75.70 14
75.72 14
75.74 14
75.76 13
75.78 8
75.80 16
75.82 18
75.84 9
75.86 21
75.88 18
75.90 12
75.92 9
75.94 16
75.96 16
75.98 17
76.00 20
76.02 11
76.04 17
76.06 10
76.08 18
76.10 11
76.12 11
76.14 14
76.16 16
76.18 18
76.20 20
76.22 17
76.24 21
76.26 13
76.28 14
76.30 15
76.32 13
76.34 15
76.36 11
76.38 25
76.40 17
76.42 22
76.44 24
76.46 24
76.48 19
76.50 23
76.52 29
76.54 19
76.56 24
76.58 27
76.60 38
76.62 20
76.64 26
76.66 40
76.68 33
76.70 35
76.72 41
76.74 44
76.76 47
76.78 63
76.80 70
76.82 95
76.84 108
76.86 121
76.88 176
76.90 264
76.92 272
76.94 302
76.96 253
76.98 248
77.00 162
77.02 154
77.04 125
77.06 123
77.08 99
77.10 128
77.12 150
77.14 154
77.16 169
77.18 132
77.20 131
77.22 100
77.24 76
77.26 84
77.28 51
77.30 53
77.32 40
77.34 43
77.36 29
77.38 34
77.40 34
77.42 33
77.44 20
77.46 29
77.48 26
77.50 19
77.52 31
77.54 18
77.56 16
77.58 18
77.60 15
77.62 17
77.64 21
77.66 23
77.68 9
77.70 22
77.72 13
77.74 15
77.76 12
77.78 15
77.80 14
77.82 16
77.84 15
77.86 16
77.88 15
77.90 12
77.92 13
77.94 10
77.96 9
77.98 13
78.00 12
78.02 12
78.04 16
78.06 17
78.08 8
78.10 14
78.12 18
78.14 15
78.16 17
78.18 14
78.20 11
78.22 9
78.24 9
78.26 17
78.28 12
78.30 16
78.32 8
78.34 11
78.36 16
78.38 8
78.40 17
78.42 14
78.44 12
78.46 11
78.48 11
78.50 12
78.52 10
78.54 16
78.56 11
78.58 9
78.60 13
78.62 11
78.64 8
78.66 14
78.68 12
78.70 11
78.72 12
78.74 11
78.76 7
78.78 19
78.80 12
78.82 10
78.84 11
78.86 10
78.88 13
78.90 10
78.92 15
78.94 14
78.96 11
78.98 20
79.00 13
79.02 16
79.04 15
79.06 13
79.08 11
79.10 3
79.12 11
79.14 12
79.16 11
79.18 12
79.20 9
79.22 15
79.24 14
79.26 13
79.28 17
79.30 12
79.32 12
79.34 15
79.36 9
79.38 16
79.40 9
79.42 12
79.44 12
79.46 13
79.48 12
79.50 11
79.52 12
79.54 9
79.56 10
79.58 17
79.60 16
79.62 13
79.64 11
79.66 6
79.68 11
79.70 10
79.72 12
79.74 13
79.76 14
79.78 13
79.80 11
79.82 11
79.84 7
79.86 12
79.88 7
79.90 19
79.92 7
79.94 11
79.96 16
79.98 19
80.00 14
