27 92
27.02 112
27.04 114
27.06 115
27.08 107
27.10 105
27.12 124
27.14 119
27.16 117
27.18 127
27.20 130
27.22 111
27.24 104
27.26 95
27.28 102
27.30 130
27.32 121
27.34 116
27.36 122
27.38 120
27.40 126
27.42 111
27.44 108
27.46 137
27.48 116
27.50 121
27.52 123
27.54 105
27.56 118
27.58 113
27.60 129
27.62 118
27.64 122
27.66 116
27.68 138
27.70 119
27.72 120
27.74 115
27.76 118
27.78 114
27.80 132
27.82 130
27.84 133
27.86 125
27.88 131
27.90 125
27.92 112
27.94 120
27.96 119
27.98 116
28.00 120
28.02 121
28.04 113
28.06 127
28.08 119
28.10 140
28.12 129
28.14 109
28.16 120
28.18 120
28.20 115
28.22 123
28.24 131
28.26 105
28.28 108
28.30 116
28.32 109
28.34 127
28.36 140
28.38 117
28.40 128
28.42 131
28.44 116
28.46 146
28.48 107
28.50 108
28.52 123
28.54 117
28.56 145
28.58 121
28.60 134
28.62 138
28.64 123
28.66 123
28.68 148
28.70 140
28.72 132
28.74 122
28.76 141
28.78 108
28.80 130
28.82 123
28.84 124
28.86 128
28.88 105
28.90 130
28.92 124
28.94 145
28.96 135
28.98 129
29.00 123
29.02 119
29.04 150
29.06 135
29.08 124
29.10 166
29.12 124
29.14 127
29.16 135
29.18 123
29.20 150
29.22 126
29.24 139
29.26 114
29.28 137
29.30 138
29.32 129
29.34 120
29.36 114
29.38 137
29.40 137
29.42 134
29.44 146
29.46 133
29.48 144
29.50 117
29.52 125
29.54 113
29.56 126
29.58 114
29.60 148
29.62 142
29.64 142
29.66 131
29.68 138
29.70 147
29.72 159
29.74 131
29.76 143
29.78 158
29.80 159
29.82 138
29.84 134
29.86 131
29.88 123
29.90 124
29.92 139
29.94 154
29.96 162
29.98 129
30.00 126
30.02 160
30.04 145
30.06 142
30.08 121
30.10 125
30.12 142
30.14 134
30.16 179
30.18 164
30.20 160
30.22 118
30.24 137
30.26 173
30.28 171
30.30 156
30.32 152
30.34 125
30.36 151
30.38 177
30.40 162
30.42 161
30.44 156
30.46 166
30.48 157
30.50 178
30.52 173
30.54 187
30.56 184
30.58 187
30.60 215
30.62 183
30.64 210
30.66 206
30.68 211
30.70 209
30.72 196
30.74 223
30.76 225
30.78 214
30.80 255
30.82 230
30.84 253
30.86 263
30.88 240
30.90 263
30.92 251
30.94 256
30.96 284
30.98 308
31.00 299
31.02 337
31.04 308
31.06 335
31.08 339
31.10 343
31.12 319
31.14 404
31.16 385
31.18 389
31.20 395
31.22 432
31.24 419
31.26 485
31.28 543
31.30 598
31.32 602
31.34 640
31.36 668
31.38 794
31.40 870
31.42 1038
31.44 1187
31.46 1454
31.48 1786
31.50 2256
31.52 2758
31.54 3579
31.56 4506
31.58 5891
31.60 7821
31.62 10612
31.64 14533
31.66 19945
31.68 27524
31.70 37133
31.72 45644
31.74 51163
31.76 50552
31.78 45002
31.80 38855
31.82 32649
31.84 27487
31.86 21077
31.88 14840
31.90 9264
31.92 5578
31.94 3840
31.96 2786
31.98 2212
32.00 1724
32.02 1352
32.04 1201
32.06 1019
32.08 885
32.10 790
32.12 695
32.14 661
32.16 591
32.18 580
32.20 527
32.22 499
32.24 399
32.26 395
32.28 404
32.30 352
32.32 341
32.34 347
32.36 323
32.38 313
32.40 339
32.42 293
32.44 280
32.46 280
32.48 256
32.50 281
32.52 248
32.54 236
32.56 255
32.58 243
32.60 295
32.62 240
32.64 226
32.66 219
32.68 227
32.70 210
32.72 211
32.74 205
32.76 203
32.78 196
32.80 207
32.82 195
32.84 220
32.86 185
32.88 201
32.90 204
32.92 189
32.94 202
32.96 185
32.98 182
33.00 231
33.02 187
33.04 188
33.06 208
33.08 210
33.10 194
33.12 187
33.14 193
33.16 192
33.18 206
33.20 222
33.22 196
33.24 196
33.26 188
33.28 216
33.30 196
33.32 215
33.34 230
33.36 215
33.38 208
33.40 220
33.42 228
33.44 234
33.46 263
33.48 223
33.50 262
33.52 229
33.54 273
33.56 234
33.58 249
33.60 256
33.62 270
33.64 266
33.66 293
33.68 295
33.70 263
33.72 274
33.74 277
33.76 316
33.78 301
33.80 334
33.82 320
33.84 303
33.86 327
33.88 341
33.90 370
33.92 379
33.94 379
33.96 407
33.98 452
34.00 464
34.02 498
34.04 562
34.06 658
34.08 690
34.10 829
34.12 1016
34.14 1179
34.16 1424
34.18 1920
34.20 2375
34.22 3085
34.24 4137
34.26 5413
34.28 7319
34.30 10446
34.32 14945
34.34 20981
34.36 28448
34.38 34151
34.40 37392
34.42 35469
34.44 30382
34.46 25709
34.48 22083
34.50 19198
34.52 15432
34.54 10679
34.56 6401
34.58 3817
34.60 2573
34.62 1906
34.64 1403
34.66 1204
34.68 975
34.70 863
34.72 679
34.74 599
34.76 554
34.78 538
34.80 505
34.82 472
34.84 405
34.86 389
34.88 418
34.90 422
34.92 386
34.94 386
34.96 376
34.98 359
35.00 337
35.02 349
35.04 352
35.06 359
35.08 337
35.10 350
35.12 350
35.14 392
35.16 358
35.18 354
35.20 353
35.22 390
35.24 356
35.26 371
35.28 375
35.30 398
35.32 386
35.34 358
35.36 428
35.38 391
35.40 415
35.42 439
35.44 465
35.46 485
35.48 470
35.50 432
35.52 494
35.54 474
35.56 511
35.58 484
35.60 562
35.62 559
35.64 631
35.66 584
35.68 615
35.70 693
35.72 691
35.74 734
35.76 804
35.78 908
35.80 970
35.82 992
35.84 1102
35.86 1172
35.88 1309
35.90 1506
35.92 1839
35.94 2313
35.96 2784
35.98 3407
36.00 4182
36.02 5326
36.04 6870
36.06 8980
36.08 11586
36.10 15392
36.12 21476
36.14 30234
36.16 41600
36.18 57273
36.20 72374
36.22 83058
36.24 84257
36.26 77203
36.28 66106
36.30 56644
36.32 50508
36.34 43543
36.36 34251
36.38 23789
36.40 14992
36.42 9457
36.44 6346
36.46 4677
36.48 3588
36.50 2771
36.52 2334
36.54 1960
36.56 1691
36.58 1425
36.60 1198
36.62 1171
36.64 1062
36.66 899
36.68 859
36.70 839
36.72 759
36.74 726
36.76 671
36.78 615
36.80 534
36.82 535
36.84 527
36.86 492
36.88 460
36.90 442
36.92 421
36.94 398
36.96 403
36.98 350
37.00 372
37.02 375
37.04 324
37.06 325
37.08 288
37.10 315
37.12 274
37.14 292
37.16 259
37.18 272
37.20 239
37.22 235
37.24 219
37.26 265
37.28 229
37.30 220
37.32 228
37.34 229
37.36 206
37.38 208
37.40 219
37.42 202
37.44 209
37.46 206
37.48 176
37.50 198
37.52 203
37.54 183
37.56 174
37.58 150
37.60 189
37.62 144
37.64 194
37.66 171
37.68 161
37.70 155
37.72 171
37.74 148
37.76 166
37.78 173
37.80 163
37.82 141
37.84 174
37.86 181
37.88 163
37.90 150
37.92 131
37.94 175
37.96 145
37.98 142
38.00 157
38.02 153
38.04 149
38.06 165
38.08 172
38.10 160
38.12 131
38.14 162
38.16 165
38.18 167
38.20 159
38.22 146
38.24 125
38.26 144
38.28 152
38.30 156
38.32 163
38.34 157
38.36 151
38.38 132
38.40 167
38.42 160
38.44 121
38.46 152
38.48 130
38.50 134
38.52 143
38.54 127
38.56 132
38.58 155
38.60 155
38.62 147
38.64 138
38.66 124
38.68 125
38.70 125
38.72 146
38.74 150
38.76 139
38.78 123
38.80 145
38.82 137
38.84 140
38.86 137
38.88 118
38.90 126
38.92 160
38.94 127
38.96 122
38.98 145
39.00 140
39.02 158
39.04 139
39.06 114
39.08 150
39.10 137
39.12 159
39.14 148
39.16 138
39.18 129
39.20 120
39.22 126
39.24 141
39.26 120
39.28 136
39.30 112
39.32 123
39.34 132
39.36 116
39.38 122
39.40 123
39.42 147
39.44 135
39.46 132
39.48 119
39.50 138
39.52 138
39.54 116
39.56 127
39.58 121
39.60 118
39.62 124
39.64 148
39.66 125
39.68 112
39.70 130
39.72 119
39.74 113
39.76 131
39.78 128
39.80 117
39.82 138
39.84 133
39.86 141
39.88 132
39.90 122
39.92 129
39.94 109
39.96 116
39.98 111
40.00 130
40.02 129
40.04 129
40.06 142
40.08 129
40.10 122
40.12 126
40.14 116
40.16 114
40.18 123
40.20 117
40.22 133
40.24 133
40.26 97
40.28 126
40.30 122
40.32 140
40.34 133
40.36 115
40.38 127
40.40 140
40.42 115
40.44 111
40.46 128
40.48 92
40.50 101
40.52 132
40.54 111
40.56 136
40.58 126
40.60 120
40.62 125
40.64 112
40.66 120
40.68 131
40.70 105
40.72 111
40.74 136
40.76 121
40.78 127
40.80 106
40.82 113
40.84 127
40.86 117
40.88 125
40.90 113
40.92 110
40.94 113
40.96 125
40.98 114
41.00 126
41.02 103
41.04 130
41.06 128
41.08 108
41.10 102
41.12 110
41.14 109
41.16 115
41.18 116
41.20 125
41.22 132
41.24 109
41.26 122
41.28 117
41.30 112
41.32 110
41.34 109
41.36 143
41.38 100
41.40 139
41.42 118
41.44 95
41.46 111
41.48 129
41.50 109
41.52 110
41.54 103
41.56 105
41.58 126
41.60 110
41.62 135
41.64 108
41.66 123
41.68 100
41.70 141
41.72 114
41.74 116
41.76 129
41.78 121
41.80 130
41.82 104
41.84 113
41.86 102
41.88 139
41.90 108
41.92 140
41.94 103
41.96 103
41.98 130
42.00 110
42.02 124
42.04 106
42.06 119
42.08 118
42.10 118
42.12 101
42.14 106
42.16 109
42.18 122
42.20 114
42.22 116
42.24 128
42.26 110
42.28 106
42.30 133
42.32 126
42.34 122
42.36 103
42.38 118
42.40 114
42.42 104
42.44 111
42.46 109
42.48 111
42.50 115
42.52 122
42.54 121
42.56 108
42.58 113
42.60 116
42.62 101
42.64 120
42.66 129
42.68 98
42.70 120
42.72 99
42.74 107
42.76 122
42.78 117
42.80 119
42.82 125
42.84 109
42.86 122
42.88 115
42.90 119
42.92 131
42.94 103
42.96 120
42.98 108
43.00 120
43.02 109
43.04 113
43.06 107
43.08 109
43.10 95
43.12 131
43.14 99
43.16 115
43.18 112
43.20 96
43.22 106
43.24 117
43.26 119
43.28 113
43.30 107
43.32 94
43.34 135
43.36 113
43.38 120
43.40 104
43.42 129
43.44 111
43.46 114
43.48 122
43.50 113
43.52 120
43.54 103
43.56 104
43.58 108
43.60 115
43.62 136
43.64 116
43.66 127
43.68 105
43.70 119
43.72 104
43.74 115
43.76 108
43.78 120
43.80 97
43.82 123
43.84 111
43.86 108
43.88 123
43.90 99
43.92 114
43.94 128
43.96 107
43.98 127
44.00 109
44.02 115
44.04 129
44.06 115
44.08 80
44.10 99
44.12 111
44.14 101
44.16 120
44.18 117
44.20 103
44.22 100
44.24 134
44.26 108
44.28 108
44.30 104
44.32 96
44.34 110
44.36 115
44.38 122
44.40 101
44.42 99
44.44 116
44.46 114
44.48 138
44.50 108
44.52 122
44.54 135
44.56 107
44.58 103
44.60 112
44.62 105
44.64 109
44.66 127
44.68 105
44.70 124
44.72 122
44.74 100
44.76 104
44.78 128
44.80 133
44.82 106
44.84 113
44.86 132
44.88 141
44.90 116
44.92 128
44.94 99
44.96 113
44.98 129
45.00 96
45.02 115
45.04 113
45.06 121
45.08 125
45.10 122
45.12 125
45.14 108
45.16 126
45.18 133
45.20 137
45.22 95
45.24 124
45.26 105
45.28 111
45.30 98
45.32 132
45.34 101
45.36 121
45.38 129
45.40 117
45.42 88
45.44 109
45.46 120
45.48 108
45.50 106
45.52 120
45.54 127
45.56 119
45.58 135
45.60 101
45.62 122
45.64 137
45.66 121
45.68 122
45.70 122
45.72 121
45.74 105
45.76 134
45.78 132
45.80 142
45.82 128
45.84 151
45.86 129
45.88 117
45.90 114
45.92 133
45.94 121
45.96 112
45.98 123
46.00 138
46.02 132
46.04 114
46.06 117
46.08 130
46.10 130
46.12 113
46.14 130
46.16 120
46.18 140
46.20 139
46.22 139
46.24 118
46.26 149
46.28 134
46.30 136
46.32 155
46.34 140
46.36 142
46.38 169
46.40 146
46.42 144
46.44 164
46.46 135
46.48 137
46.50 186
46.52 147
46.54 163
46.56 157
46.58 168
46.60 157
46.62 157
46.64 155
46.66 178
46.68 189
46.70 183
46.72 207
46.74 207
46.76 196
46.78 187
46.80 172
46.82 213
46.84 211
46.86 212
46.88 207
46.90 214
46.92 213
46.94 210
46.96 221
46.98 252
47.00 281
47.02 257
47.04 266
47.06 259
47.08 299
47.10 322
47.12 327
47.14 354
47.16 404
47.18 494
47.20 508
47.22 602
47.24 691
47.26 850
47.28 976
47.30 1199
47.32 1432
47.34 1835
47.36 2353
47.38 3034
47.40 4100
47.42 5830
47.44 8378
47.46 11640
47.48 15233
47.50 18002
47.52 18548
47.54 16827
47.56 14157
47.58 11698
47.60 10165
47.62 10309
47.64 10196
47.66 9136
47.68 7332
47.70 5296
47.72 3398
47.74 2177
47.76 1626
47.78 1105
47.80 889
47.82 729
47.84 622
47.86 557
47.88 471
47.90 433
47.92 374
47.94 363
47.96 371
47.98 308
48.00 271
48.02 299
48.04 252
48.06 264
48.08 220
48.10 248
48.12 223
48.14 221
48.16 206
48.18 192
48.20 206
48.22 191
48.24 182
48.26 195
48.28 164
48.30 182
48.32 176
48.34 155
48.36 152
48.38 155
48.40 161
48.42 172
48.44 164
48.46 138
48.48 155
48.50 158
48.52 149
48.54 131
48.56 129
48.58 148
48.60 118
48.62 143
48.64 134
48.66 164
48.68 152
48.70 151
48.72 125
48.74 122
48.76 147
48.78 121
48.80 129
48.82 121
48.84 132
48.86 143
48.88 146
48.90 133
48.92 123
48.94 121
48.96 125
48.98 124
49.00 126
49.02 133
49.04 119
49.06 127
49.08 115
49.10 115
49.12 115
49.14 103
49.16 128
49.18 129
49.20 126
49.22 109
49.24 109
49.26 116
49.28 104
49.30 107
49.32 123
49.34 124
49.36 106
49.38 108
49.40 111
49.42 108
49.44 111
49.46 124
49.48 104
49.50 108
49.52 103
49.54 130
49.56 124
49.58 116
49.60 113
49.62 113
49.64 118
49.66 96
49.68 104
49.70 96
49.72 113
49.74 135
49.76 110
49.78 127
49.80 110
49.82 118
49.84 122
49.86 115
49.88 133
49.90 128
49.92 106
49.94 111
49.96 107
49.98 103
50.00 115
50.02 123
50.04 106
50.06 117
50.08 127
50.10 131
50.12 129
50.14 121
50.16 108
50.18 113
50.20 96
50.22 122
50.24 119
50.26 113
50.28 116
50.30 118
50.32 130
50.34 137
50.36 112
50.38 121
50.40 97
50.42 123
50.44 104
50.46 115
50.48 106
50.50 131
50.52 122
50.54 116
50.56 99
50.58 127
50.60 105
50.62 135
50.64 121
50.66 105
50.68 122
50.70 116
50.72 126
50.74 103
50.76 124
50.78 114
50.80 106
50.82 111
50.84 95
50.86 92
50.88 123
50.90 112
50.92 131
50.94 104
50.96 102
50.98 113
51.00 119
51.02 114
51.04 112
51.06 107
51.08 111
51.10 88
51.12 103
51.14 118
51.16 115
51.18 101
51.20 134
51.22 98
51.24 104
51.26 135
51.28 128
51.30 115
51.32 139
51.34 92
51.36 114
51.38 128
51.40 141
51.42 116
51.44 118
51.46 126
51.48 132
51.50 106
51.52 109
51.54 110
51.56 103
51.58 121
51.60 121
51.62 115
51.64 136
51.66 127
51.68 100
51.70 127
51.72 120
51.74 117
51.76 97
51.78 102
51.80 137
51.82 120
51.84 104
51.86 98
51.88 100
51.90 122
51.92 107
51.94 125
51.96 132
51.98 119
52.00 124
52.02 120
52.04 123
52.06 106
52.08 128
52.10 125
52.12 113
52.14 109
52.16 119
52.18 117
52.20 135
52.22 119
52.24 130
52.26 120
52.28 123
52.30 112
52.32 114
52.34 111
52.36 129
52.38 104
52.40 121
52.42 111
52.44 99
52.46 109
52.48 141
52.50 118
52.52 119
52.54 117
52.56 127
52.58 103
52.60 134
52.62 110
52.64 116
52.66 99
52.68 116
52.70 109
52.72 116
52.74 128
52.76 123
52.78 120
52.80 124
52.82 112
52.84 128
52.86 128
52.88 131
52.90 122
52.92 116
52.94 119
52.96 122
52.98 125
53.00 127
53.02 116
53.04 136
53.06 120
53.08 102
53.10 135
53.12 134
53.14 112
53.16 112
53.18 129
53.20 127
53.22 152
53.24 108
53.26 100
53.28 100
53.30 145
53.32 107
53.34 114
53.36 119
53.38 123
53.40 118
53.42 123
53.44 117
53.46 122
53.48 116
53.50 127
53.52 137
53.54 131
53.56 130
53.58 106
53.60 155
53.62 131
53.64 126
53.66 129
53.68 124
53.70 122
53.72 147
53.74 109
53.76 142
53.78 120
53.80 124
53.82 133
53.84 133
53.86 110
53.88 130
53.90 132
53.92 139
53.94 135
53.96 124
53.98 131
54.00 131
54.02 123
54.04 133
54.06 129
54.08 115
54.10 132
54.12 160
54.14 129
54.16 140
54.18 139
54.20 141
54.22 140
54.24 125
54.26 147
54.28 122
54.30 137
54.32 141
54.34 147
54.36 129
54.38 149
54.40 136
54.42 147
54.44 137
54.46 141
54.48 148
54.50 170
54.52 147
54.54 130
54.56 144
54.58 119
54.60 148
54.62 144
54.64 171
54.66 143
54.68 137
54.70 143
54.72 145
54.74 162
54.76 153
54.78 180
54.80 147
54.82 179
54.84 171
54.86 176
54.88 185
54.90 183
54.92 167
54.94 150
54.96 163
54.98 155
55.00 182
55.02 177
55.04 184
55.06 181
55.08 161
55.10 163
55.12 174
55.14 185
55.16 185
55.18 167
55.20 193
55.22 188
55.24 185
55.26 173
55.28 193
55.30 193
55.32 192
55.34 201
55.36 189
55.38 188
55.40 202
55.42 190
55.44 203
55.46 162
55.48 211
55.50 202
55.52 239
55.54 204
55.56 218
55.58 222
55.60 223
55.62 225
55.64 217
55.66 221
55.68 242
55.70 232
55.72 231
55.74 240
55.76 263
55.78 229
55.80 265
55.82 259
55.84 266
55.86 239
55.88 264
55.90 286
55.92 289
55.94 286
55.96 268
55.98 282
56.00 322
56.02 349
56.04 372
56.06 362
56.08 370
56.10 381
56.12 433
56.14 427
56.16 460
56.18 556
56.20 599
56.22 628
56.24 761
56.26 871
56.28 1019
56.30 1162
56.32 1325
56.34 1492
56.36 1780
56.38 2128
56.40 2519
56.42 3379
56.44 4426
56.46 6233
56.48 8847
56.50 12781
56.52 18216
56.54 23225
56.56 27644
56.58 27679
56.60 24352
56.62 19497
56.64 14814
56.66 12387
56.68 12655
56.70 13771
56.72 14721
56.74 14289
56.76 11963
56.78 8769
56.80 5900
56.82 3695
56.84 2566
56.86 1838
56.88 1426
56.90 1152
56.92 1018
56.94 879
56.96 781
56.98 685
57.00 618
57.02 523
57.04 500
57.06 481
57.08 394
57.10 398
57.12 359
57.14 361
57.16 365
57.18 326
57.20 351
57.22 280
57.24 340
57.26 298
57.28 286
57.30 300
57.32 267
57.34 251
57.36 246
57.38 255
57.40 257
57.42 251
57.44 246
57.46 229
57.48 226
57.50 236
57.52 222
57.54 230
57.56 216
57.58 203
57.60 230
57.62 221
57.64 195
57.66 194
57.68 179
57.70 206
57.72 195
57.74 205
57.76 195
57.78 195
57.80 167
57.82 203
57.84 195
57.86 163
57.88 173
57.90 149
57.92 183
57.94 164
57.96 187
57.98 189
58.00 161
58.02 183
58.04 179
58.06 145
58.08 176
58.10 158
58.12 165
58.14 194
58.16 173
58.18 172
58.20 160
58.22 165
58.24 151
58.26 160
58.28 147
58.30 169
58.32 185
58.34 166
58.36 170
58.38 167
58.40 139
58.42 135
58.44 135
58.46 157
58.48 191
58.50 164
58.52 166
58.54 178
58.56 175
58.58 161
58.60 142
58.62 162
58.64 156
58.66 151
58.68 166
58.70 149
58.72 169
58.74 162
58.76 153
58.78 159
58.80 166
58.82 161
58.84 133
58.86 142
58.88 150
58.90 161
58.92 169
58.94 152
58.96 154
58.98 159
59.00 162
59.02 154
59.04 156
59.06 160
59.08 161
59.10 167
59.12 157
59.14 151
59.16 143
59.18 159
59.20 156
59.22 165
59.24 143
59.26 150
59.28 129
59.30 170
59.32 142
59.34 163
59.36 155
59.38 166
59.40 164
59.42 167
59.44 160
59.46 166
59.48 154
59.50 152
59.52 178
59.54 155
59.56 177
59.58 146
59.60 140
59.62 128
59.64 164
59.66 163
59.68 133
59.70 153
59.72 161
59.74 186
59.76 140
59.78 153
59.80 137
59.82 187
59.84 155
59.86 173
59.88 171
59.90 154
59.92 162
59.94 177
59.96 144
59.98 147
60.00 154
60.02 152
60.04 172
60.06 154
60.08 151
60.10 148
60.12 153
60.14 144
60.16 191
60.18 151
60.20 167
60.22 159
60.24 135
60.26 136
60.28 166
60.30 154
60.32 160
60.34 165
60.36 173
60.38 159
60.40 153
60.42 152
60.44 170
60.46 142
60.48 153
60.50 147
60.52 152
60.54 164
60.56 161
60.58 185
60.60 147
60.62 151
60.64 158
60.66 164
60.68 183
60.70 188
60.72 163
60.74 165
60.76 173
60.78 161
60.80 194
60.82 166
60.84 172
60.86 201
60.88 163
60.90 174
60.92 173
60.94 186
60.96 187
60.98 164
61.00 205
61.02 155
61.04 193
61.06 165
61.08 190
61.10 180
61.12 166
61.14 178
61.16 191
61.18 178
61.20 157
61.22 194
61.24 197
61.26 203
61.28 198
61.30 189
61.32 192
61.34 195
61.36 191
61.38 198
61.40 188
61.42 205
61.44 214
61.46 214
61.48 196
61.50 209
61.52 211
61.54 203
61.56 225
61.58 212
61.60 193
61.62 202
61.64 220
61.66 234
61.68 200
61.70 202
61.72 207
61.74 238
61.76 194
61.78 239
61.80 247
61.82 227
61.84 216
61.86 228
61.88 232
61.90 234
61.92 250
61.94 247
61.96 222
61.98 237
62.00 224
62.02 228
62.04 240
62.06 268
62.08 284
62.10 274
62.12 233
62.14 287
62.16 278
62.18 300
62.20 283
62.22 300
62.24 284
62.26 314
62.28 322
62.30 338
62.32 348
62.34 373
62.36 382
62.38 446
62.40 457
62.42 502
62.44 580
62.46 651
62.48 675
62.50 749
62.52 855
62.54 944
62.56 968
62.58 1153
62.60 1325
62.62 1460
62.64 1848
62.66 2166
62.68 2814
62.70 3833
62.72 5253
62.74 7325
62.76 10848
62.78 15128
62.80 20064
62.82 22813
62.84 23978
62.86 21237
62.88 16675
62.90 12367
62.92 9571
62.94 8954
62.96 9842
62.98 11339
63.00 12429
63.02 12306
63.04 10783
63.06 8034
63.08 5680
63.10 3539
63.12 2422
63.14 1733
63.16 1395
63.18 1145
63.20 952
63.22 828
63.24 688
63.26 638
63.28 634
63.30 559
63.32 498
63.34 475
63.36 425
63.38 404
63.40 386
63.42 359
63.44 377
63.46 342
63.48 321
63.50 308
63.52 292
63.54 308
63.56 322
63.58 267
63.60 264
63.62 214
63.64 283
63.66 269
63.68 254
63.70 265
63.72 235
63.74 235
63.76 229
63.78 235
63.80 258
63.82 214
63.84 227
63.86 204
63.88 222
63.90 216
63.92 198
63.94 220
63.96 249
63.98 204
64.00 238
64.02 215
64.04 196
64.06 212
64.08 187
64.10 208
64.12 206
64.14 221
64.16 181
64.18 214
64.20 179
64.22 167
64.24 210
64.26 179
64.28 185
64.30 180
64.32 174
64.34 192
64.36 194
64.38 196
64.40 193
64.42 173
64.44 175
64.46 177
64.48 171
64.50 166
64.52 191
64.54 139
64.56 169
64.58 144
64.60 173
64.62 180
64.64 177
64.66 168
64.68 181
64.70 159
64.72 165
64.74 196
64.76 164
64.78 158
64.80 161
64.82 190
64.84 173
64.86 168
64.88 169
64.90 172
64.92 173
64.94 192
64.96 179
64.98 158
65.00 156
65.02 173
65.04 151
65.06 163
65.08 197
65.10 167
65.12 171
65.14 159
65.16 181
65.18 140
65.20 172
65.22 183
65.24 173
65.26 184
65.28 173
65.30 180
65.32 182
65.34 158
65.36 188
65.38 177
65.40 189
65.42 167
65.44 195
65.46 173
65.48 199
65.50 160
65.52 206
65.54 183
65.56 182
65.58 188
65.60 195
65.62 180
65.64 198
65.66 189
65.68 221
65.70 170
65.72 192
65.74 201
65.76 231
65.78 212
65.80 199
65.82 205
65.84 205
65.86 234
65.88 206
65.90 214
65.92 235
65.94 223
65.96 283
65.98 238
66.00 249
66.02 281
66.04 282
66.06 334
66.08 297
66.10 323
66.12 377
66.14 373
66.16 490
66.18 559
66.20 651
66.22 765
66.24 1016
66.26 1347
66.28 1902
66.30 2627
66.32 3329
66.34 3724
66.36 3842
66.38 3477
66.40 2684
66.42 2039
66.44 1546
66.46 1468
66.48 1500
66.50 1731
66.52 2061
66.54 2034
66.56 2009
66.58 1718
66.60 1188
66.62 882
66.64 655
66.66 521
66.68 433
66.70 387
66.72 321
66.74 339
66.76 327
66.78 306
66.80 254
66.82 281
66.84 249
66.86 292
66.88 271
66.90 249
66.92 240
66.94 227
66.96 232
66.98 268
67.00 246
67.02 228
67.04 255
67.06 272
67.08 272
67.10 292
67.12 260
67.14 236
67.16 264
67.18 269
67.20 301
67.22 286
67.24 278
67.26 325
67.28 313
67.30 286
67.32 315
67.34 322
67.36 351
67.38 369
67.40 331
67.42 375
67.44 363
67.46 439
67.48 417
67.50 459
67.52 541
67.54 578
67.56 613
67.58 701
67.60 666
67.62 856
67.64 833
67.66 991
67.68 1077
67.70 1227
67.72 1481
67.74 1804
67.76 2249
67.78 2902
67.80 4062
67.82 5537
67.84 7897
67.86 11299
67.88 14764
67.90 18210
67.92 20052
67.94 19115
67.96 16084
67.98 11912
68.00 8712
68.02 7053
68.04 6754
68.06 7371
68.08 8684
68.10 9840
68.12 10486
68.14 9732
68.16 7841
68.18 5559
68.20 3760
68.22 2538
68.24 1862
68.26 1311
68.28 1112
68.30 944
68.32 850
68.34 742
68.36 628
68.38 590
68.40 553
68.42 488
68.44 461
68.46 446
68.48 429
68.50 471
68.52 420
68.54 448
68.56 436
68.58 427
68.60 397
68.62 393
68.64 424
68.66 425
68.68 438
68.70 478
68.72 506
68.74 531
68.76 550
68.78 582
68.80 627
68.82 700
68.84 737
68.86 841
68.88 1004
68.90 1222
68.92 1616
68.94 2084
68.96 2880
68.98 4129
69.00 5759
69.02 7576
69.04 9294
69.06 9917
69.08 9561
69.10 7984
69.12 5938
69.14 4476
69.16 3569
69.18 3348
69.20 3616
69.22 4310
69.24 5020
69.26 5129
69.28 4909
69.30 4034
69.32 2994
69.34 2143
69.36 1451
69.38 981
69.40 759
69.42 664
69.44 563
69.46 504
69.48 449
69.50 376
69.52 337
69.54 288
69.56 311
69.58 297
69.60 284
69.62 269
69.64 279
69.66 232
69.68 237
69.70 233
69.72 219
69.74 243
69.76 186
69.78 217
69.80 207
69.82 226
69.84 200
69.86 221
69.88 225
69.90 185
69.92 163
69.94 169
69.96 190
69.98 198
70.00 175
70.02 178
70.04 171
70.06 181
70.08 167
70.10 194
70.12 165
70.14 183
70.16 171
70.18 193
70.20 170
70.22 161
70.24 169
70.26 176
70.28 143
70.30 167
70.32 180
70.34 156
70.36 161
70.38 151
70.40 129
70.42 156
70.44 147
70.46 148
70.48 153
70.50 143
70.52 139
70.54 166
70.56 163
70.58 170
70.60 175
70.62 170
70.64 143
70.66 132
70.68 146
70.70 150
70.72 142
70.74 145
70.76 144
70.78 156
70.80 156
70.82 148
70.84 126
70.86 143
70.88 140
70.90 127
70.92 139
70.94 151
70.96 114
70.98 154
71.00 156
71.02 140
71.04 159
71.06 126
71.08 132
71.10 109
71.12 144
71.14 105
71.16 118
71.18 131
71.20 150
71.22 147
71.24 145
71.26 122
71.28 131
71.30 131
71.32 144
71.34 116
71.36 114
71.38 117
71.40 123
71.42 123
71.44 130
71.46 119
71.48 125
71.50 125
71.52 139
71.54 135
71.56 144
71.58 134
71.60 136
71.62 138
71.64 114
71.66 133
71.68 132
71.70 126
71.72 113
71.74 124
71.76 136
71.78 124
71.80 139
71.82 141
71.84 112
71.86 146
71.88 114
71.90 132
71.92 137
71.94 138
71.96 143
71.98 114
72.00 129
72.02 128
72.04 138
72.06 144
72.08 136
72.10 143
72.12 132
72.14 163
72.16 146
72.18 151
72.20 166
72.22 153
72.24 141
72.26 175
72.28 183
72.30 205
72.32 212
72.34 225
72.36 241
72.38 288
72.40 328
72.42 396
72.44 526
72.46 699
72.48 949
72.50 1300
72.52 1593
72.54 1739
72.56 1641
72.58 1404
72.60 1004
72.62 777
72.64 574
72.66 560
72.68 572
72.70 699
72.72 798
72.74 840
72.76 914
72.78 825
72.80 724
72.82 545
72.84 368
72.86 278
72.88 215
72.90 198
72.92 186
72.94 154
72.96 168
72.98 134
73.00 133
73.02 133
73.04 113
73.06 127
73.08 111
73.10 124
73.12 127
73.14 130
73.16 112
73.18 108
73.20 137
73.22 114
73.24 113
73.26 107
73.28 109
73.30 126
73.32 112
73.34 115
73.36 100
73.38 110
73.40 115
73.42 101
73.44 122
73.46 111
73.48 108
73.50 113
73.52 102
73.54 99
73.56 107
73.58 140
73.60 120
73.62 106
73.64 117
73.66 106
73.68 115
73.70 118
73.72 99
73.74 107
73.76 100
73.78 105
73.80 138
73.82 110
73.84 134
73.86 112
73.88 115
73.90 111
73.92 111
73.94 91
73.96 102
73.98 108
74.00 96
74.02 112
74.04 114
74.06 103
74.08 107
74.10 108
74.12 92
74.14 109
74.16 113
74.18 107
74.20 105
74.22 103
74.24 108
74.26 107
74.28 95
74.30 102
74.32 103
74.34 109
74.36 89
74.38 110
74.40 117
74.42 102
74.44 95
74.46 102
74.48 98
74.50 93
74.52 113
74.54 109
74.56 117
74.58 92
74.60 113
74.62 103
74.64 107
74.66 115
74.68 109
74.70 110
74.72 112
74.74 90
74.76 123
74.78 112
74.80 105
74.82 106
74.84 128
74.86 114
74.88 99
74.90 104
74.92 112
74.94 100
74.96 109
74.98 133
75.00 105
75.02 104
75.04 120
75.06 110
75.08 87
75.10 116
75.12 91
75.14 103
75.16 105
75.18 99
75.20 88
75.22 90
75.24 107
75.26 90
75.28 104
75.30 103
75.32 98
75.34 104
75.36 114
75.38 100
75.40 114
75.42 107
75.44 102
75.46 102
75.48 108
75.50 95
75.52 92
75.54 90
75.56 117
75.58 95
75.60 115
75.62 102
75.64 90
75.66 117
75.68 101
75.70 114
75.72 104
75.74 99
75.76 110
75.78 98
75.80 132
75.82 117
75.84 102
75.86 107
75.88 88
75.90 121
75.92 108
75.94 108
75.96 118
75.98 108
76.00 122
76.02 109
76.04 101
76.06 108
76.08 112
76.10 112
76.12 113
76.14 130
76.16 112
76.18 108
76.20 108
76.22 113
76.24 117
76.26 128
76.28 112
76.30 119
76.32 108
76.34 109
76.36 139
76.38 129
76.40 141
76.42 152
76.44 151
76.46 133
76.48 153
76.50 158
76.52 161
76.54 173
76.56 178
76.58 196
76.60 179
76.62 190
76.64 188
76.66 202
76.68 240
76.70 271
76.72 287
76.74 323
76.76 390
76.78 489
76.80 624
76.82 763
76.84 1074
76.86 1457
76.88 1927
76.90 2567
76.92 2954
76.94 3177
76.96 2975
76.98 2410
77.00 1735
77.02 1248
77.04 1015
77.06 955
77.08 943
77.10 1127
77.12 1321
77.14 1509
77.16 1650
77.18 1591
77.20 1391
77.22 1124
77.24 789
77.26 560
77.28 401
77.30 351
77.32 269
77.34 264
77.36 216
77.38 163
77.40 194
77.42 157
77.44 152
77.46 155
77.48 122
77.50 123
77.52 121
77.54 126
77.56 137
77.58 95
77.60 135
77.62 101
77.64 147
77.66 117
77.68 137
77.70 109
77.72 107
77.74 99
77.76 120
77.78 113
77.80 101
77.82 108
77.84 111
77.86 109
77.88 105
77.90 124
77.92 95
77.94 102
77.96 109
77.98 92
78.00 109
78.02 101
78.04 79
78.06 97
78.08 82
78.10 127
78.12 113
78.14 116
78.16 90
78.18 105
78.20 112
78.22 90
78.24 88
78.26 111
78.28 97
78.30 97
78.32 82
78.34 85
78.36 93
78.38 102
78.40 87
78.42 83
78.44 99
78.46 106
78.48 129
78.50 94
78.52 118
78.54 103
78.56 100
78.58 109
78.60 85
78.62 112
78.64 90
78.66 98
78.68 96
78.70 106
78.72 105
78.74 107
78.76 94
78.78 79
78.80 95
78.82 101
78.84 111
78.86 80
78.88 86
78.90 101
78.92 105
78.94 93
78.96 90
78.98 100
79.00 85
79.02 83
79.04 110
79.06 103
79.08 92
79.10 97
79.12 89
79.14 98
79.16 92
79.18 111
79.20 106
79.22 106
79.24 104
79.26 105
79.28 101
79.30 88
79.32 87
79.34 82
79.36 73
79.38 93
79.40 99
79.42 113
79.44 90
79.46 99
79.48 85
79.50 99
79.52 76
79.54 80
79.56 85
79.58 89
79.60 103
79.62 101
79.64 88
79.66 76
79.68 88
79.70 89
79.72 80
79.74 86
79.76 93
79.78 80
79.80 93
79.82 99
79.84 81
79.86 82
79.88 94
79.90 84
79.92 104
79.94 100
79.96 91
79.98 92
80.00 99
